# <?xml version="1.0" ?>
# <DataFileHeader>
#   <Variables>
#     <Element name="PulseProgram" type="dict">
#       <Element name="PulseProgram" type="str">C:/Users/ions/Documents/IonControl/project_dir/QuditLab/config/PulseProgramsPlus/Ablation_NeutralFluorescence.ppp</Element>
#       <Element name="NULL" type="Quantity">0</Element>
#       <Element name="FFFFFFFF" type="Quantity">18446744073709551615</Element>
#       <Element name="INTERRUPT_EXITCODE" type="Quantity">18446198715942174720</Element>
#       <Element name="InitializationShutter" type="int">4610</Element>
#       <Element name="NaturalAblation_mask" type="int">256</Element>
#       <Element name="NaturalAblation" type="int">256</Element>
#       <Element name="EndShutter" type="int">4610</Element>
#       <Element name="ShutterDelayTime" type="Quantity">0.5 s</Element>
#       <Element name="WindowStartTime" type="Quantity">145 us</Element>
#       <Element name="DetectTime" type="Quantity">20 us</Element>
#       <Element name="DummyVar" type="int">0</Element>
#       <Element name="experiments" type="int">1</Element>
#       <Element name="DetectCounters" type="int">1</Element>
#       <Element name="endLabel" type="Quantity">18446744073709551615</Element>
#       <Element name="experimentsleft" type="Quantity">100</Element>
#       <Element name="currentexperiment" type="Quantity">0</Element>
#       <Element name="inlinevar_1" type="Quantity">1</Element>
#     </Element>
#     <Element name="Scan" type="dict">
#       <Element name="scanParameter" type="str">DummyVar</Element>
#       <Element name="scanTarget" type="str">Internal</Element>
#       <Element name="scantype" type="int">0</Element>
#       <Element name="scanMode" type="int">0</Element>
#       <Element name="xUnit" type="str"></Element>
#       <Element name="xExpression" type="str"></Element>
#       <Element name="loadPP" type="bool">True</Element>
#       <Element name="loadPPName" type="str">Ablation_NeutralFluorescence_Nat.ppp</Element>
#       <Element name="parallelInternalScanParameter" type="str">None</Element>
#     </Element>
#     <ColumnSpec>timeTickFirst, timeTickLast, x, PMT Count, PMT Count_raw, PMT Count_bottom, PMT Count_top</ColumnSpec>
#     <Element name="comment" type="str"></Element>
#     <Element name="lastDataAquired" type="datetime">2020-09-09 19:42:15.135045+00:00</Element>
#     <Element name="name" type="str"></Element>
#     <Element name="traceCreation" type="datetime">2020-09-09 19:40:34.473516+00:00</Element>
#     <Element name="traceFinalized" type="datetime">2020-09-09 19:42:15.139704+00:00</Element>
#     <TracePlottingList>
#       <TracePlotting _bottomColumn="PMT Count_bottom" _filtColumn="None" _fitFunction="None" _heightColumn="height" _rawColumn="PMT Count_raw" _topColumn="PMT Count_top" _xColumn="x" _yColumn="PMT Count" fill="True" name="PMT Count" properties="&lt;trace.PlottedTrace.PlottedTraceProperties object at 0x000002A9855690B8&gt;" style="0" type="0" windowName="Scan Data" xAxisLabel="DummyVar" xAxisUnit="" yAxisLabel="None">
#         <PlottedTraceProperties averageSameX="False" averageType="0" combinePoints="0"/>
#       </TracePlotting>
#     </TracePlottingList>
#   </Variables>
# </DataFileHeader>
1599680433.090286	1599680433.090286	1.0	0.0	0	0	0.5
1599680434.470285	1599680434.470285	1.0376569037656904	0.0	0	0	0.5
1599680435.1437957	1599680435.1437957	1.0753138075313808	0.0	0	0	0.5
1599680435.8303308	1599680435.8303308	1.112970711297071	0.0	0	0	0.5
1599680436.495952	1599680436.495952	1.1506276150627615	1.0	1	0.5	0.5
1599680437.163229	1599680437.163229	1.1882845188284519	0.0	0	0	0.5
1599680437.8479688	1599680437.8479688	1.2259414225941423	0.0	0	0	0.5
1599680438.5444157	1599680438.5444157	1.2635983263598327	0.0	0	0	0.5
1599680439.208931	1599680439.208931	1.301255230125523	0.0	0	0	0.5
1599680439.8742583	1599680439.8742583	1.3389121338912133	0.0	0	0	0.5
1599680440.5229082	1599680440.5229082	1.3765690376569037	0.0	0	0	0.5
1599680441.1344407	1599680441.1344407	1.4142259414225942	0.0	0	0	0.5
1599680441.7392714	1599680441.7392714	1.4518828451882846	1.0	1	0.5	0.5
1599680442.3483965	1599680442.3483965	1.489539748953975	2.0	2	0.7071067811865476	0.7071067811865476
1599680442.9656048	1599680442.9656048	1.5271966527196654	1.0	1	0.5	0.5
1599680443.5638385	1599680443.5638385	1.5648535564853556	1.0	1	0.5	0.5
1599680444.1738744	1599680444.1738744	1.602510460251046	0.0	0	0	0.5
1599680444.7760656	1599680444.7760656	1.6401673640167365	1.0	1	0.5	0.5
1599680445.3946266	1599680445.3946266	1.6778242677824267	0.0	0	0	0.5
1599680445.995308	1599680445.995308	1.715481171548117	0.0	0	0	0.5
1599680446.6001801	1599680446.6001801	1.7531380753138075	1.0	1	0.5	0.5
1599680447.2073815	1599680447.2073815	1.790794979079498	0.0	0	0	0.5
1599680447.8235552	1599680447.8235552	1.8284518828451883	1.0	1	0.5	0.5
1599680448.4385438	1599680448.4385438	1.8661087866108788	0.0	0	0	0.5
1599680449.0373406	1599680449.0373406	1.9037656903765692	0.0	0	0	0.5
1599680449.6546216	1599680449.6546216	1.9414225941422596	0.0	0	0	0.5
1599680450.2479625	1599680450.2479625	1.9790794979079498	1.0	1	0.5	0.5
1599680450.8727763	1599680450.8727763	2.01673640167364	0.0	0	0	0.5
1599680451.467711	1599680451.467711	2.054393305439331	0.0	0	0	0.5
1599680452.0817657	1599680452.0817657	2.092050209205021	1.0	1	0.5	0.5
1599680452.6728945	1599680452.6728945	2.1297071129707112	7.0	7	1.3228756555322954	1.3228756555322954
1599680453.2122946	1599680453.2122946	2.1673640167364017	4.0	4	1.0	1.0
1599680453.7610965	1599680453.7610965	2.205020920502092	22.0	22	2.345207879911715	2.345207879911715
1599680454.46799	1599680454.46799	2.2426778242677825	12.0	12	1.7320508075688772	1.7320508075688772
1599680454.8496783	1599680454.8496783	2.280334728033473	1.0	1	0.5	0.5
1599680455.411029	1599680455.411029	2.3179916317991633	2.0	2	0.7071067811865476	0.7071067811865476
1599680455.9596622	1599680455.9596622	2.3556485355648533	0.0	0	0	0.5
1599680456.5134015	1599680456.5134015	2.393305439330544	1.0	1	0.5	0.5
1599680457.0504808	1599680457.0504808	2.430962343096234	0.0	0	0	0.5
1599680457.602358	1599680457.602358	2.468619246861925	0.0	0	0	0.5
1599680458.1426716	1599680458.1426716	2.506276150627615	1.0	1	0.5	0.5
1599680458.693404	1599680458.693404	2.5439330543933054	0.0	0	0	0.5
1599680459.237286	1599680459.237286	2.581589958158996	3.0	3	0.8660254037844386	0.8660254037844386
1599680459.787762	1599680459.787762	2.6192468619246863	0.0	0	0	0.5
1599680460.3362207	1599680460.3362207	2.6569037656903767	0.0	0	0	0.5
1599680460.8783538	1599680460.8783538	2.694560669456067	7.0	7	1.3228756555322954	1.3228756555322954
1599680461.4281883	1599680461.4281883	2.7322175732217575	37.0	37	3.0413812651491097	3.0413812651491097
1599680461.981819	1599680461.981819	2.7698744769874475	99.0	99	4.9749371855331	4.9749371855331
1599680462.5125837	1599680462.5125837	2.8075313807531384	174.0	174	6.59545297913646	6.59545297913646
1599680463.067868	1599680463.067868	2.8451882845188283	152.0	152	6.164414002968976	6.164414002968976
1599680463.601514	1599680463.601514	2.882845188284519	238.0	238	7.713624310270756	7.713624310270756
1599680464.0978193	1599680464.0978193	2.920502092050209	203.0	203	7.123903424387503	7.123903424387503
1599680464.589941	1599680464.589941	2.9581589958158996	176.0	176	6.6332495807108	6.6332495807108
1599680465.0714047	1599680465.0714047	2.99581589958159	51.0	51	3.570714214271425	3.570714214271425
1599680465.567139	1599680465.567139	3.0334728033472804	16.0	16	2.0	2.0
1599680466.0597281	1599680466.0597281	3.071129707112971	10.0	10	1.5811388300841898	1.5811388300841898
1599680466.5494394	1599680466.5494394	3.1087866108786613	9.0	9	1.5	1.5
1599680467.0495882	1599680467.0495882	3.1464435146443517	14.0	14	1.8708286933869707	1.8708286933869707
1599680467.534378	1599680467.534378	3.184100418410042	9.0	9	1.5	1.5
1599680468.0301683	1599680468.0301683	3.221757322175732	47.0	47	3.427827300200522	3.427827300200522
1599680468.5281253	1599680468.5281253	3.2594142259414225	37.0	37	3.0413812651491097	3.0413812651491097
1599680469.0156736	1599680469.0156736	3.297071129707113	89.0	89	4.716990566028302	4.716990566028302
1599680469.5012102	1599680469.5012102	3.3347280334728033	59.0	59	3.840572873934304	3.840572873934304
1599680470.0130842	1599680470.0130842	3.3723849372384938	167.0	167	6.461423991660043	6.461423991660043
1599680470.4946356	1599680470.4946356	3.410041841004184	110.0	110	5.244044240850758	5.244044240850758
1599680470.9849417	1599680470.9849417	3.4476987447698746	117.0	117	5.408326913195984	5.408326913195984
1599680471.4692516	1599680471.4692516	3.485355648535565	43.0	43	3.278719262151	3.278719262151
1599680471.968903	1599680471.968903	3.5230125523012554	30.0	30	2.7386127875258306	2.7386127875258306
1599680472.4729958	1599680472.4729958	3.560669456066946	8.0	8	1.4142135623730951	1.4142135623730951
1599680472.9609845	1599680472.9609845	3.5983263598326363	10.0	10	1.5811388300841898	1.5811388300841898
1599680473.4267094	1599680473.4267094	3.6359832635983262	37.0	37	3.0413812651491097	3.0413812651491097
1599680473.8907316	1599680473.8907316	3.6736401673640167	17.0	17	2.0615528128088303	2.0615528128088303
1599680474.3178117	1599680474.3178117	3.711297071129707	20.0	20	2.23606797749979	2.23606797749979
1599680474.7744043	1599680474.7744043	3.7489539748953975	60.0	60	3.872983346207417	3.872983346207417
1599680475.1991918	1599680475.1991918	3.786610878661088	26.0	26	2.5495097567963922	2.5495097567963922
1599680475.6802444	1599680475.6802444	3.8242677824267783	47.0	47	3.427827300200522	3.427827300200522
1599680476.1034265	1599680476.1034265	3.8619246861924688	22.0	22	2.345207879911715	2.345207879911715
1599680476.5331295	1599680476.5331295	3.899581589958159	11.0	11	1.6583123951777	1.6583123951777
1599680476.9689188	1599680476.9689188	3.9372384937238496	26.0	26	2.5495097567963922	2.5495097567963922
1599680477.4232907	1599680477.4232907	3.97489539748954	5.0	5	1.118033988749895	1.118033988749895
1599680477.8606825	1599680477.8606825	4.01255230125523	11.0	11	1.6583123951777	1.6583123951777
1599680478.322106	1599680478.322106	4.05020920502092	10.0	10	1.5811388300841898	1.5811388300841898
1599680478.7419968	1599680478.7419968	4.087866108786611	14.0	14	1.8708286933869707	1.8708286933869707
1599680479.2033708	1599680479.2033708	4.125523012552302	50.0	50	3.5355339059327378	3.5355339059327378
1599680479.6281972	1599680479.6281972	4.163179916317992	72.0	72	4.242640687119285	4.242640687119285
1599680480.080861	1599680480.080861	4.200836820083682	147.0	147	6.06217782649107	6.06217782649107
1599680480.5300083	1599680480.5300083	4.2384937238493725	210.0	210	7.245688373094719	7.245688373094719
1599680480.9763587	1599680480.9763587	4.276150627615063	267.0	267	8.170067319184096	8.170067319184096
1599680481.41753	1599680481.41753	4.313807531380753	324.0	324	9.0	9.0
1599680481.84835	1599680481.84835	4.351464435146443	317.0	317	8.902246907382429	8.902246907382429
1599680482.2762995	1599680482.2762995	4.389121338912134	345.0	345	9.287087810503355	9.287087810503355
1599680482.682308	1599680482.682308	4.426778242677824	334.0	334	9.137833441248533	9.137833441248533
1599680483.0777261	1599680483.0777261	4.464435146443515	345.0	345	9.287087810503355	9.287087810503355
1599680483.4720438	1599680483.4720438	4.502092050209205	282.0	282	8.396427811873332	8.396427811873332
1599680483.8854246	1599680483.8854246	4.539748953974895	278.0	278	8.336666000266533	8.336666000266533
1599680484.275417	1599680484.275417	4.577405857740586	343.0	343	9.260129588726068	9.260129588726068
1599680484.6715264	1599680484.6715264	4.615062761506277	341.0	341	9.233092656309694	9.233092656309694
1599680485.082346	1599680485.082346	4.652719665271967	314.0	314	8.860022573334675	8.860022573334675
1599680485.4787354	1599680485.4787354	4.690376569037657	335.0	335	9.151502608861563	9.151502608861563
1599680485.8841121	1599680485.8841121	4.7280334728033475	349.0	349	9.340770846134703	9.340770846134703
1599680486.2627006	1599680486.2627006	4.765690376569038	350.0	350	9.354143466934854	9.354143466934854
1599680486.6812139	1599680486.6812139	4.803347280334728	354.0	354	9.40744386111339	9.40744386111339
1599680487.0639343	1599680487.0639343	4.841004184100418	360.0	360	9.486832980505138	9.486832980505138
1599680487.4729042	1599680487.4729042	4.878661087866108	345.0	345	9.287087810503355	9.287087810503355
1599680487.872078	1599680487.872078	4.916317991631799	338.0	338	9.192388155425117	9.192388155425117
1599680488.2571106	1599680488.2571106	4.95397489539749	345.0	345	9.287087810503355	9.287087810503355
1599680488.6740253	1599680488.6740253	4.99163179916318	337.0	337	9.17877987534291	9.17877987534291
1599680489.0704916	1599680489.0704916	5.02928870292887	377.0	377	9.7082439194738	9.7082439194738
1599680489.4708476	1599680489.4708476	5.066945606694561	345.0	345	9.287087810503355	9.287087810503355
1599680489.8615344	1599680489.8615344	5.104602510460251	299.0	299	8.645808232895291	8.645808232895291
1599680490.2413504	1599680490.2413504	5.142259414225942	328.0	328	9.055385138137417	9.055385138137417
1599680490.601686	1599680490.601686	5.179916317991632	322.0	322	8.972179222463181	8.972179222463181
1599680490.9758828	1599680490.9758828	5.2175732217573225	218.0	218	7.3824115301167	7.3824115301167
1599680491.3276548	1599680491.3276548	5.2552301255230125	58.0	58	3.8078865529319543	3.8078865529319543
1599680491.6897674	1599680491.6897674	5.292887029288703	22.0	22	2.345207879911715	2.345207879911715
1599680492.0425375	1599680492.0425375	5.330543933054393	94.0	94	4.847679857416329	4.847679857416329
1599680492.405263	1599680492.405263	5.368200836820084	48.0	48	3.4641016151377544	3.4641016151377544
1599680492.7657673	1599680492.7657673	5.405857740585774	105.0	105	5.123475382979799	5.123475382979799
1599680493.1263285	1599680493.1263285	5.443514644351464	155.0	155	6.224949798994366	6.224949798994366
1599680493.4879627	1599680493.4879627	5.481171548117155	92.0	92	4.795831523312719	4.795831523312719
1599680493.8443685	1599680493.8443685	5.518828451882845	71.0	71	4.2130748865881795	4.2130748865881795
1599680494.1985922	1599680494.1985922	5.556485355648536	123.0	123	5.545268253204709	5.545268253204709
1599680494.5555584	1599680494.5555584	5.594142259414226	188.0	188	6.855654600401044	6.855654600401044
1599680494.920822	1599680494.920822	5.631799163179917	289.0	289	8.5	8.5
1599680495.2740333	1599680495.2740333	5.669456066945607	263.0	263	8.108637370113428	8.108637370113428
1599680495.6419444	1599680495.6419444	5.7071129707112975	297.0	297	8.616843969807043	8.616843969807043
1599680495.9992466	1599680495.9992466	5.7447698744769875	216.0	216	7.3484692283495345	7.3484692283495345
1599680496.3581357	1599680496.3581357	5.782426778242678	139.0	139	5.894913061275798	5.894913061275798
1599680496.7031329	1599680496.7031329	5.820083682008368	77.0	77	4.387482193696061	4.387482193696061
1599680497.0744417	1599680497.0744417	5.857740585774058	56.0	56	3.7416573867739413	3.7416573867739413
1599680497.4213064	1599680497.4213064	5.895397489539749	16.0	16	2.0	2.0
1599680497.7530107	1599680497.7530107	5.933054393305439	4.0	4	1.0	1.0
1599680498.0638657	1599680498.0638657	5.97071129707113	3.0	3	0.8660254037844386	0.8660254037844386
1599680498.3910115	1599680498.3910115	6.00836820083682	5.0	5	1.118033988749895	1.118033988749895
1599680498.7140076	1599680498.7140076	6.046025104602511	5.0	5	1.118033988749895	1.118033988749895
1599680499.0252707	1599680499.0252707	6.083682008368201	11.0	11	1.6583123951777	1.6583123951777
1599680499.3618877	1599680499.3618877	6.121338912133892	3.0	3	0.8660254037844386	0.8660254037844386
1599680499.6861181	1599680499.6861181	6.158995815899582	5.0	5	1.118033988749895	1.118033988749895
1599680500.0083444	1599680500.0083444	6.1966527196652725	2.0	2	0.7071067811865476	0.7071067811865476
1599680500.3270926	1599680500.3270926	6.2343096234309625	46.0	46	3.391164991562634	3.391164991562634
1599680500.6525786	1599680500.6525786	6.2719665271966525	35.0	35	2.958039891549808	2.958039891549808
1599680500.9724505	1599680500.9724505	6.309623430962343	79.0	79	4.444097208657794	4.444097208657794
1599680501.293774	1599680501.293774	6.347280334728033	110.0	110	5.244044240850758	5.244044240850758
1599680501.6213927	1599680501.6213927	6.384937238493724	262.0	262	8.093207028119323	8.093207028119323
1599680502.0042596	1599680502.0042596	6.422594142259414	264.0	264	8.12403840463596	8.12403840463596
1599680502.261578	1599680502.261578	6.460251046025105	335.0	335	9.151502608861563	9.151502608861563
1599680502.5841885	1599680502.5841885	6.497907949790795	304.0	304	8.717797887081348	8.717797887081348
1599680502.9065914	1599680502.9065914	6.535564853556486	313.0	313	8.845903006477066	8.845903006477066
1599680503.267973	1599680503.267973	6.573221757322176	258.0	258	8.031189202104505	8.031189202104505
1599680503.5600576	1599680503.5600576	6.610878661087867	276.0	276	8.306623862918075	8.306623862918075
1599680503.868038	1599680503.868038	6.648535564853557	302.0	302	8.689073598491383	8.689073598491383
1599680504.1601498	1599680504.1601498	6.686192468619247	303.0	303	8.703447592764606	8.703447592764606
1599680504.4505544	1599680504.4505544	6.7238493723849375	288.0	288	8.48528137423857	8.48528137423857
1599680504.8048773	1599680504.8048773	6.7615062761506275	372.0	372	9.643650760992955	9.643650760992955
1599680505.0337174	1599680505.0337174	6.799163179916318	384.0	384	9.797958971132712	9.797958971132712
1599680505.3254104	1599680505.3254104	6.836820083682008	268.0	268	8.18535277187245	8.18535277187245
1599680505.6145282	1599680505.6145282	6.874476987447699	174.0	174	6.59545297913646	6.59545297913646
1599680505.9101202	1599680505.9101202	6.912133891213389	137.0	137	5.852349955359813	5.852349955359813
1599680506.1961193	1599680506.1961193	6.94979079497908	229.0	229	7.566372975210778	7.566372975210778
1599680506.486258	1599680506.486258	6.98744769874477	304.0	304	8.717797887081348	8.717797887081348
1599680506.7735806	1599680506.7735806	7.02510460251046	337.0	337	9.17877987534291	9.17877987534291
1599680507.070873	1599680507.070873	7.062761506276151	336.0	336	9.16515138991168	9.16515138991168
1599680507.3599827	1599680507.3599827	7.100418410041841	356.0	356	9.433981132056603	9.433981132056603
1599680507.6473174	1599680507.6473174	7.138075313807532	249.0	249	7.88986691902975	7.88986691902975
1599680507.9381027	1599680507.9381027	7.175732217573222	341.0	341	9.233092656309694	9.233092656309694
1599680508.2267487	1599680508.2267487	7.2133891213389125	349.0	349	9.340770846134703	9.340770846134703
1599680508.5180714	1599680508.5180714	7.2510460251046025	344.0	344	9.273618495495704	9.273618495495704
1599680508.810043	1599680508.810043	7.288702928870293	350.0	350	9.354143466934854	9.354143466934854
1599680509.116305	1599680509.116305	7.326359832635983	336.0	336	9.16515138991168	9.16515138991168
1599680509.3907018	1599680509.3907018	7.364016736401674	334.0	334	9.137833441248533	9.137833441248533
1599680509.685416	1599680509.685416	7.401673640167364	343.0	343	9.260129588726068	9.260129588726068
1599680510.0091748	1599680510.0091748	7.439330543933054	358.0	358	9.460443964212251	9.460443964212251
1599680510.3274605	1599680510.3274605	7.476987447698745	344.0	344	9.273618495495704	9.273618495495704
1599680510.6505244	1599680510.6505244	7.514644351464435	338.0	338	9.192388155425117	9.192388155425117
1599680510.967543	1599680510.967543	7.552301255230126	353.0	353	9.394147114027968	9.394147114027968
1599680511.2936432	1599680511.2936432	7.589958158995816	360.0	360	9.486832980505138	9.486832980505138
1599680511.6070578	1599680511.6070578	7.627615062761507	357.0	357	9.447221813845593	9.447221813845593
1599680511.9303994	1599680511.9303994	7.665271966527197	352.0	352	9.38083151964686	9.38083151964686
1599680512.2448266	1599680512.2448266	7.7029288702928875	359.0	359	9.473647660748208	9.473647660748208
1599680512.5670564	1599680512.5670564	7.7405857740585775	387.0	387	9.836157786453	9.836157786453
1599680512.8868427	1599680512.8868427	7.778242677824268	391.0	391	9.886859966642595	9.886859966642595
1599680513.2574122	1599680513.2574122	7.815899581589958	383.0	383	9.785192895390463	9.785192895390463
1599680513.5238516	1599680513.5238516	7.853556485355648	371.0	371	9.630680142129112	9.630680142129112
1599680513.8469708	1599680513.8469708	7.891213389121339	392.0	392	9.899494936611665	9.899494936611665
1599680514.1697311	1599680514.1697311	7.928870292887029	378.0	378	9.72111104761179	9.72111104761179
1599680514.509722	1599680514.509722	7.96652719665272	407.0	407	10.087120500916008	10.087120500916008
1599680514.8042338	1599680514.8042338	8.00418410041841	389.0	389	9.86154146165801	9.86154146165801
1599680515.1198974	1599680515.1198974	8.0418410041841	397.0	397	9.962429422585638	9.962429422585638
1599680515.4435546	1599680515.4435546	8.07949790794979	382.0	382	9.772410142846033	9.772410142846033
1599680515.7615373	1599680515.7615373	8.117154811715482	364.0	364	9.539392014169456	9.539392014169456
1599680516.0922973	1599680516.0922973	8.154811715481172	387.0	387	9.836157786453	9.836157786453
1599680516.4457374	1599680516.4457374	8.192468619246863	393.0	393	9.912113800799505	9.912113800799505
1599680516.8016474	1599680516.8016474	8.230125523012553	380.0	380	9.746794344808963	9.746794344808963
1599680517.145153	1599680517.145153	8.267782426778243	370.0	370	9.617692030835672	9.617692030835672
1599680517.4995403	1599680517.4995403	8.305439330543933	377.0	377	9.7082439194738	9.7082439194738
1599680517.8465343	1599680517.8465343	8.343096234309623	364.0	364	9.539392014169456	9.539392014169456
1599680518.196725	1599680518.196725	8.380753138075313	347.0	347	9.313968005098578	9.313968005098578
1599680518.5516918	1599680518.5516918	8.418410041841003	316.0	316	8.888194417315589	8.888194417315589
1599680518.905984	1599680518.905984	8.456066945606695	348.0	348	9.327379053088816	9.327379053088816
1599680519.25352	1599680519.25352	8.493723849372385	312.0	312	8.831760866327848	8.831760866327848
1599680519.6291394	1599680519.6291394	8.531380753138077	280.0	280	8.366600265340756	8.366600265340756
1599680519.9621148	1599680519.9621148	8.569037656903767	257.0	257	8.0156097709407	8.0156097709407
1599680520.310345	1599680520.310345	8.606694560669457	269.0	269	8.200609733428363	8.200609733428363
1599680520.658911	1599680520.658911	8.644351464435147	274.0	274	8.276472678623424	8.276472678623424
1599680521.0120165	1599680521.0120165	8.682008368200837	275.0	275	8.2915619758885	8.2915619758885
1599680521.361061	1599680521.361061	8.719665271966527	286.0	286	8.455767262643882	8.455767262643882
1599680521.7121124	1599680521.7121124	8.757322175732217	297.0	297	8.616843969807043	8.616843969807043
1599680522.0687587	1599680522.0687587	8.794979079497908	266.0	266	8.154753215150045	8.154753215150045
1599680522.421228	1599680522.421228	8.832635983263598	285.0	285	8.440971508067067	8.440971508067067
1599680522.7728097	1599680522.7728097	8.87029288702929	281.0	281	8.381527307120106	8.381527307120106
1599680523.131598	1599680523.131598	8.90794979079498	287.0	287	8.470537173048708	8.470537173048708
1599680523.523572	1599680523.523572	8.94560669456067	346.0	346	9.300537618869138	9.300537618869138
1599680523.9112525	1599680523.9112525	8.98326359832636	343.0	343	9.260129588726068	9.260129588726068
1599680524.2923534	1599680524.2923534	9.02092050209205	360.0	360	9.486832980505138	9.486832980505138
1599680524.6819444	1599680524.6819444	9.05857740585774	368.0	368	9.591663046625438	9.591663046625438
1599680525.0649228	1599680525.0649228	9.096234309623432	366.0	366	9.565563234854496	9.565563234854496
1599680525.4517803	1599680525.4517803	9.133891213389122	348.0	348	9.327379053088816	9.327379053088816
1599680525.8407357	1599680525.8407357	9.171548117154812	313.0	313	8.845903006477066	8.845903006477066
1599680526.2281764	1599680526.2281764	9.209205020920502	340.0	340	9.219544457292887	9.219544457292887
1599680526.6177063	1599680526.6177063	9.246861924686193	299.0	299	8.645808232895291	8.645808232895291
1599680527.0057485	1599680527.0057485	9.284518828451883	331.0	331	9.096702699330127	9.096702699330127
1599680527.3860521	1599680527.3860521	9.322175732217573	332.0	332	9.1104335791443	9.1104335791443
1599680527.773784	1599680527.773784	9.359832635983263	321.0	321	8.958236433584458	8.958236433584458
1599680528.1665065	1599680528.1665065	9.397489539748955	333.0	333	9.12414379544733	9.12414379544733
1599680528.5488958	1599680528.5488958	9.435146443514645	302.0	302	8.689073598491383	8.689073598491383
1599680528.9414542	1599680528.9414542	9.472803347280335	350.0	350	9.354143466934854	9.354143466934854
1599680529.3179307	1599680529.3179307	9.510460251046025	352.0	352	9.38083151964686	9.38083151964686
1599680529.7183657	1599680529.7183657	9.548117154811715	343.0	343	9.260129588726068	9.260129588726068
1599680530.097706	1599680530.097706	9.585774058577407	352.0	352	9.38083151964686	9.38083151964686
1599680530.4874883	1599680530.4874883	9.623430962343097	343.0	343	9.260129588726068	9.260129588726068
1599680530.8806477	1599680530.8806477	9.661087866108787	355.0	355	9.420721840708387	9.420721840708387
1599680531.3100157	1599680531.3100157	9.698744769874477	318.0	318	8.916277250063503	8.916277250063503
1599680531.783987	1599680531.783987	9.736401673640168	344.0	344	9.273618495495704	9.273618495495704
1599680532.1581306	1599680532.1581306	9.774058577405858	334.0	334	9.137833441248533	9.137833441248533
1599680532.58378	1599680532.58378	9.811715481171548	270.0	270	8.215838362577491	8.215838362577491
1599680533.0070753	1599680533.0070753	9.849372384937238	106.0	106	5.1478150704935	5.1478150704935
1599680533.4293869	1599680533.4293869	9.887029288702928	93.0	93	4.8218253804964775	4.8218253804964775
1599680533.8631833	1599680533.8631833	9.92468619246862	115.0	115	5.361902647381804	5.361902647381804
1599680534.3033617	1599680534.3033617	9.96234309623431	182.0	182	6.745368781616021	6.745368781616021
1599680534.7125785	1599680534.7125785	10.0	108.0	108	5.196152422706632	5.196152422706632