# <?xml version="1.0" ?>
# <DataFileHeader>
#   <Variables>
#     <Element name="PulseProgram" type="dict">
#       <Element name="PulseProgram" type="str">C:/Users/ions/Documents/IonControl/project_dir/QuditLab/config/PulseProgramsPlus/Ablation_NeutralFluorescence.ppp</Element>
#       <Element name="NULL" type="Quantity">0</Element>
#       <Element name="FFFFFFFF" type="Quantity">18446744073709551615</Element>
#       <Element name="INTERRUPT_EXITCODE" type="Quantity">18446198715942174720</Element>
#       <Element name="InitializationShutter" type="int">5154</Element>
#       <Element name="NaturalAblation_mask" type="int">256</Element>
#       <Element name="NaturalAblation" type="int">256</Element>
#       <Element name="EndShutter" type="int">5154</Element>
#       <Element name="ShutterDelayTime" type="Quantity">0.5 s</Element>
#       <Element name="WindowStartTime" type="Quantity">145 us</Element>
#       <Element name="DetectTime" type="Quantity">20 us</Element>
#       <Element name="DummyVar" type="int">0</Element>
#       <Element name="experiments" type="int">1</Element>
#       <Element name="DetectCounters" type="int">1</Element>
#       <Element name="endLabel" type="Quantity">18446744073709551615</Element>
#       <Element name="experimentsleft" type="Quantity">100</Element>
#       <Element name="currentexperiment" type="Quantity">0</Element>
#       <Element name="inlinevar_1" type="Quantity">1</Element>
#     </Element>
#     <Element name="Scan" type="dict">
#       <Element name="scanParameter" type="str">DummyVar</Element>
#       <Element name="scanTarget" type="str">Internal</Element>
#       <Element name="scantype" type="int">0</Element>
#       <Element name="scanMode" type="int">0</Element>
#       <Element name="xUnit" type="str"></Element>
#       <Element name="xExpression" type="str"></Element>
#       <Element name="loadPP" type="bool">True</Element>
#       <Element name="loadPPName" type="str">Ablation_NeutralFluorescence_Rad.ppp</Element>
#       <Element name="parallelInternalScanParameter" type="str">None</Element>
#     </Element>
#     <ColumnSpec>timeTickFirst, timeTickLast, x, PMT Count, PMT Count_raw, PMT Count_bottom, PMT Count_top</ColumnSpec>
#     <Element name="comment" type="str"></Element>
#     <Element name="lastDataAquired" type="datetime">2020-09-04 20:12:42.767595+00:00</Element>
#     <Element name="name" type="str"></Element>
#     <Element name="traceCreation" type="datetime">2020-09-04 20:11:17.008733+00:00</Element>
#     <Element name="traceFinalized" type="datetime">2020-09-04 20:12:43.061243+00:00</Element>
#     <TracePlottingList>
#       <TracePlotting _bottomColumn="PMT Count_bottom" _filtColumn="None" _fitFunction="None" _heightColumn="height" _rawColumn="PMT Count_raw" _topColumn="PMT Count_top" _xColumn="x" _yColumn="PMT Count" fill="True" name="PMT Count" properties="&lt;trace.PlottedTrace.PlottedTraceProperties object at 0x000002A984ACEB38&gt;" style="0" type="0" windowName="Scan Data" xAxisLabel="DummyVar" xAxisUnit="" yAxisLabel="None">
#         <PlottedTraceProperties averageSameX="False" averageType="0" combinePoints="0"/>
#       </TracePlotting>
#     </TracePlottingList>
#   </Variables>
# </DataFileHeader>
1599250275.249483	1599250275.249483	29750.5	9.0	9	1.5	1.5
1599250277.0053506	1599250277.0053506	29751.502004008016	9.0	9	1.5	1.5
1599250277.8680203	1599250277.8680203	29752.504008016032	13.0	13	1.8027756377319946	1.8027756377319946
1599250278.5735848	1599250278.5735848	29753.50601202405	13.0	13	1.8027756377319946	1.8027756377319946
1599250279.0419645	1599250279.0419645	29754.508016032065	6.0	6	1.224744871391589	1.224744871391589
1599250279.7853134	1599250279.7853134	29755.51002004008	6.0	6	1.224744871391589	1.224744871391589
1599250280.5559318	1599250280.5559318	29756.512024048097	11.0	11	1.6583123951777	1.6583123951777
1599250281.297974	1599250281.297974	29757.514028056114	7.0	7	1.3228756555322954	1.3228756555322954
1599250282.0384257	1599250282.0384257	29758.51603206413	13.0	13	1.8027756377319946	1.8027756377319946
1599250282.8036373	1599250282.8036373	29759.518036072146	9.0	9	1.5	1.5
1599250283.5434246	1599250283.5434246	29760.52004008016	10.0	10	1.5811388300841898	1.5811388300841898
1599250284.288987	1599250284.288987	29761.522044088175	11.0	11	1.6583123951777	1.6583123951777
1599250285.051787	1599250285.051787	29762.52404809619	14.0	14	1.8708286933869707	1.8708286933869707
1599250285.8136492	1599250285.8136492	29763.526052104207	22.0	22	2.345207879911715	2.345207879911715
1599250286.5301645	1599250286.5301645	29764.528056112224	23.0	23	2.3979157616563596	2.3979157616563596
1599250287.288041	1599250287.288041	29765.53006012024	12.0	12	1.7320508075688772	1.7320508075688772
1599250288.0393977	1599250288.0393977	29766.532064128256	10.0	10	1.5811388300841898	1.5811388300841898
1599250288.7926095	1599250288.7926095	29767.534068136272	9.0	9	1.5	1.5
1599250289.6226137	1599250289.6226137	29768.53607214429	11.0	11	1.6583123951777	1.6583123951777
1599250290.2807627	1599250290.2807627	29769.538076152305	8.0	8	1.4142135623730951	1.4142135623730951
1599250291.037441	1599250291.037441	29770.54008016032	12.0	12	1.7320508075688772	1.7320508075688772
1599250291.7846901	1599250291.7846901	29771.542084168337	11.0	11	1.6583123951777	1.6583123951777
1599250292.5404506	1599250292.5404506	29772.544088176353	14.0	14	1.8708286933869707	1.8708286933869707
1599250293.3008823	1599250293.3008823	29773.54609218437	10.0	10	1.5811388300841898	1.5811388300841898
1599250294.0375435	1599250294.0375435	29774.548096192386	16.0	16	2.0	2.0
1599250294.7993577	1599250294.7993577	29775.550100200402	12.0	12	1.7320508075688772	1.7320508075688772
1599250295.5295208	1599250295.5295208	29776.55210420842	14.0	14	1.8708286933869707	1.8708286933869707
1599250296.285759	1599250296.285759	29777.554108216435	5.0	5	1.118033988749895	1.118033988749895
1599250297.0404599	1599250297.0404599	29778.556112224447	15.0	15	1.9364916731037085	1.9364916731037085
1599250297.8019154	1599250297.8019154	29779.558116232463	15.0	15	1.9364916731037085	1.9364916731037085
1599250298.5413494	1599250298.5413494	29780.56012024048	14.0	14	1.8708286933869707	1.8708286933869707
1599250299.2635932	1599250299.2635932	29781.562124248496	5.0	5	1.118033988749895	1.118033988749895
1599250299.934309	1599250299.934309	29782.564128256512	17.0	17	2.0615528128088303	2.0615528128088303
1599250300.6307518	1599250300.6307518	29783.56613226453	14.0	14	1.8708286933869707	1.8708286933869707
1599250301.2741566	1599250301.2741566	29784.568136272545	19.0	19	2.179449471770337	2.179449471770337
1599250301.9530432	1599250301.9530432	29785.57014028056	9.0	9	1.5	1.5
1599250302.6406925	1599250302.6406925	29786.572144288577	5.0	5	1.118033988749895	1.118033988749895
1599250303.3053694	1599250303.3053694	29787.574148296593	14.0	14	1.8708286933869707	1.8708286933869707
1599250303.9906154	1599250303.9906154	29788.57615230461	15.0	15	1.9364916731037085	1.9364916731037085
1599250304.6646798	1599250304.6646798	29789.578156312626	6.0	6	1.224744871391589	1.224744871391589
1599250305.3522801	1599250305.3522801	29790.580160320642	12.0	12	1.7320508075688772	1.7320508075688772
1599250306.0174432	1599250306.0174432	29791.582164328658	4.0	4	1.0	1.0
1599250306.6835666	1599250306.6835666	29792.584168336674	10.0	10	1.5811388300841898	1.5811388300841898
1599250307.3544888	1599250307.3544888	29793.58617234469	15.0	15	1.9364916731037085	1.9364916731037085
1599250308.0367777	1599250308.0367777	29794.588176352707	12.0	12	1.7320508075688772	1.7320508075688772
1599250308.700938	1599250308.700938	29795.590180360723	11.0	11	1.6583123951777	1.6583123951777
1599250309.3778844	1599250309.3778844	29796.59218436874	10.0	10	1.5811388300841898	1.5811388300841898
1599250310.0675092	1599250310.0675092	29797.594188376752	9.0	9	1.5	1.5
1599250310.7374463	1599250310.7374463	29798.596192384768	9.0	9	1.5	1.5
1599250311.4183145	1599250311.4183145	29799.598196392784	4.0	4	1.0	1.0
1599250312.0785778	1599250312.0785778	29800.6002004008	11.0	11	1.6583123951777	1.6583123951777
1599250312.7235403	1599250312.7235403	29801.602204408817	10.0	10	1.5811388300841898	1.5811388300841898
1599250313.3436918	1599250313.3436918	29802.604208416833	15.0	15	1.9364916731037085	1.9364916731037085
1599250313.9486856	1599250313.9486856	29803.60621242485	10.0	10	1.5811388300841898	1.5811388300841898
1599250314.5508642	1599250314.5508642	29804.608216432865	13.0	13	1.8027756377319946	1.8027756377319946
1599250315.1627486	1599250315.1627486	29805.61022044088	14.0	14	1.8708286933869707	1.8708286933869707
1599250315.7631905	1599250315.7631905	29806.612224448898	6.0	6	1.224744871391589	1.224744871391589
1599250316.3716843	1599250316.3716843	29807.614228456914	13.0	13	1.8027756377319946	1.8027756377319946
1599250316.9821334	1599250316.9821334	29808.61623246493	11.0	11	1.6583123951777	1.6583123951777
1599250317.5967581	1599250317.5967581	29809.618236472947	17.0	17	2.0615528128088303	2.0615528128088303
1599250318.2014647	1599250318.2014647	29810.620240480963	12.0	12	1.7320508075688772	1.7320508075688772
1599250318.8144662	1599250318.8144662	29811.62224448898	9.0	9	1.5	1.5
1599250319.413663	1599250319.413663	29812.624248496995	9.0	9	1.5	1.5
1599250320.032383	1599250320.032383	29813.62625250501	8.0	8	1.4142135623730951	1.4142135623730951
1599250320.63882	1599250320.63882	29814.628256513028	5.0	5	1.118033988749895	1.118033988749895
1599250321.243684	1599250321.243684	29815.63026052104	6.0	6	1.224744871391589	1.224744871391589
1599250321.8384185	1599250321.8384185	29816.632264529057	5.0	5	1.118033988749895	1.118033988749895
1599250322.4599123	1599250322.4599123	29817.634268537073	8.0	8	1.4142135623730951	1.4142135623730951
1599250323.07098	1599250323.07098	29818.63627254509	8.0	8	1.4142135623730951	1.4142135623730951
1599250323.6778915	1599250323.6778915	29819.638276553105	7.0	7	1.3228756555322954	1.3228756555322954
1599250324.2707508	1599250324.2707508	29820.64028056112	9.0	9	1.5	1.5
1599250324.8535738	1599250324.8535738	29821.642284569138	3.0	3	0.8660254037844386	0.8660254037844386
1599250325.4009192	1599250325.4009192	29822.644288577154	6.0	6	1.224744871391589	1.224744871391589
1599250325.9543757	1599250325.9543757	29823.64629258517	3.0	3	0.8660254037844386	0.8660254037844386
1599250326.4917068	1599250326.4917068	29824.648296593186	10.0	10	1.5811388300841898	1.5811388300841898
1599250327.0397427	1599250327.0397427	29825.650300601203	3.0	3	0.8660254037844386	0.8660254037844386
1599250327.5891144	1599250327.5891144	29826.65230460922	4.0	4	1.0	1.0
1599250328.1386802	1599250328.1386802	29827.654308617235	8.0	8	1.4142135623730951	1.4142135623730951
1599250328.6845734	1599250328.6845734	29828.65631262525	7.0	7	1.3228756555322954	1.3228756555322954
1599250329.241791	1599250329.241791	29829.658316633268	5.0	5	1.118033988749895	1.118033988749895
1599250329.8678756	1599250329.8678756	29830.660320641284	8.0	8	1.4142135623730951	1.4142135623730951
1599250330.3307936	1599250330.3307936	29831.6623246493	9.0	9	1.5	1.5
1599250330.8754947	1599250330.8754947	29832.664328657316	10.0	10	1.5811388300841898	1.5811388300841898
1599250331.4302514	1599250331.4302514	29833.666332665332	8.0	8	1.4142135623730951	1.4142135623730951
1599250331.9725306	1599250331.9725306	29834.668336673345	6.0	6	1.224744871391589	1.224744871391589
1599250332.5345514	1599250332.5345514	29835.67034068136	15.0	15	1.9364916731037085	1.9364916731037085
1599250333.067598	1599250333.067598	29836.672344689377	7.0	7	1.3228756555322954	1.3228756555322954
1599250333.6135075	1599250333.6135075	29837.674348697394	10.0	10	1.5811388300841898	1.5811388300841898
1599250334.15299	1599250334.15299	29838.67635270541	6.0	6	1.224744871391589	1.224744871391589
1599250334.714416	1599250334.714416	29839.678356713426	11.0	11	1.6583123951777	1.6583123951777
1599250335.2579775	1599250335.2579775	29840.680360721442	6.0	6	1.224744871391589	1.224744871391589
1599250335.779658	1599250335.779658	29841.68236472946	6.0	6	1.224744871391589	1.224744871391589
1599250336.2646248	1599250336.2646248	29842.684368737475	10.0	10	1.5811388300841898	1.5811388300841898
1599250336.7599344	1599250336.7599344	29843.68637274549	6.0	6	1.224744871391589	1.224744871391589
1599250337.2555492	1599250337.2555492	29844.688376753507	8.0	8	1.4142135623730951	1.4142135623730951
1599250337.7464783	1599250337.7464783	29845.690380761524	8.0	8	1.4142135623730951	1.4142135623730951
1599250338.2274513	1599250338.2274513	29846.69238476954	4.0	4	1.0	1.0
1599250338.724139	1599250338.724139	29847.694388777556	6.0	6	1.224744871391589	1.224744871391589
1599250339.2128706	1599250339.2128706	29848.696392785572	9.0	9	1.5	1.5
1599250339.7062562	1599250339.7062562	29849.69839679359	11.0	11	1.6583123951777	1.6583123951777
1599250340.2008133	1599250340.2008133	29850.700400801605	6.0	6	1.224744871391589	1.224744871391589
1599250340.6910446	1599250340.6910446	29851.70240480962	14.0	14	1.8708286933869707	1.8708286933869707
1599250341.180466	1599250341.180466	29852.704408817634	6.0	6	1.224744871391589	1.224744871391589
1599250341.6742477	1599250341.6742477	29853.70641282565	15.0	15	1.9364916731037085	1.9364916731037085
1599250342.1645103	1599250342.1645103	29854.708416833666	16.0	16	2.0	2.0
1599250342.6692343	1599250342.6692343	29855.710420841682	6.0	6	1.224744871391589	1.224744871391589
1599250343.1605635	1599250343.1605635	29856.7124248497	7.0	7	1.3228756555322954	1.3228756555322954
1599250343.6465955	1599250343.6465955	29857.714428857715	6.0	6	1.224744871391589	1.224744871391589
1599250344.1456277	1599250344.1456277	29858.71643286573	5.0	5	1.118033988749895	1.118033988749895
1599250344.6295874	1599250344.6295874	29859.718436873747	11.0	11	1.6583123951777	1.6583123951777
1599250345.1241705	1599250345.1241705	29860.720440881763	2.0	2	0.7071067811865476	0.7071067811865476
1599250345.7170546	1599250345.7170546	29861.72244488978	8.0	8	1.4142135623730951	1.4142135623730951
1599250346.0449069	1599250346.0449069	29862.724448897796	11.0	11	1.6583123951777	1.6583123951777
1599250346.5456583	1599250346.5456583	29863.726452905812	4.0	4	1.0	1.0
1599250346.928192	1599250346.928192	29864.72845691383	6.0	6	1.224744871391589	1.224744871391589
1599250347.3670244	1599250347.3670244	29865.730460921844	5.0	5	1.118033988749895	1.118033988749895
1599250347.8226354	1599250347.8226354	29866.73246492986	8.0	8	1.4142135623730951	1.4142135623730951
1599250348.2591414	1599250348.2591414	29867.734468937877	11.0	11	1.6583123951777	1.6583123951777
1599250348.7050865	1599250348.7050865	29868.736472945893	4.0	4	1.0	1.0
1599250349.1437626	1599250349.1437626	29869.73847695391	7.0	7	1.3228756555322954	1.3228756555322954
1599250349.5913322	1599250349.5913322	29870.740480961926	6.0	6	1.224744871391589	1.224744871391589
1599250350.0256665	1599250350.0256665	29871.74248496994	8.0	8	1.4142135623730951	1.4142135623730951
1599250350.4771247	1599250350.4771247	29872.744488977954	11.0	11	1.6583123951777	1.6583123951777
1599250350.913006	1599250350.913006	29873.74649298597	9.0	9	1.5	1.5
1599250351.3583753	1599250351.3583753	29874.748496993987	14.0	14	1.8708286933869707	1.8708286933869707
1599250351.7991211	1599250351.7991211	29875.750501002003	4.0	4	1.0	1.0
1599250352.244459	1599250352.244459	29876.75250501002	11.0	11	1.6583123951777	1.6583123951777
1599250352.6949942	1599250352.6949942	29877.754509018036	11.0	11	1.6583123951777	1.6583123951777
1599250353.1317718	1599250353.1317718	29878.756513026052	14.0	14	1.8708286933869707	1.8708286933869707
1599250353.572654	1599250353.572654	29879.758517034068	12.0	12	1.7320508075688772	1.7320508075688772
1599250354.019648	1599250354.019648	29880.760521042084	23.0	23	2.3979157616563596	2.3979157616563596
1599250354.4430482	1599250354.4430482	29881.7625250501	10.0	10	1.5811388300841898	1.5811388300841898
1599250354.8437774	1599250354.8437774	29882.764529058117	15.0	15	1.9364916731037085	1.9364916731037085
1599250355.2395594	1599250355.2395594	29883.766533066133	5.0	5	1.118033988749895	1.118033988749895
1599250355.6452782	1599250355.6452782	29884.76853707415	15.0	15	1.9364916731037085	1.9364916731037085
1599250356.0386581	1599250356.0386581	29885.770541082165	9.0	9	1.5	1.5
1599250356.4356866	1599250356.4356866	29886.77254509018	8.0	8	1.4142135623730951	1.4142135623730951
1599250356.8365896	1599250356.8365896	29887.774549098198	11.0	11	1.6583123951777	1.6583123951777
1599250357.2369175	1599250357.2369175	29888.776553106214	5.0	5	1.118033988749895	1.118033988749895
1599250357.6373134	1599250357.6373134	29889.778557114227	6.0	6	1.224744871391589	1.224744871391589
1599250358.037603	1599250358.037603	29890.780561122243	12.0	12	1.7320508075688772	1.7320508075688772
1599250358.4370756	1599250358.4370756	29891.78256513026	9.0	9	1.5	1.5
1599250358.8310401	1599250358.8310401	29892.784569138275	7.0	7	1.3228756555322954	1.3228756555322954
1599250359.232324	1599250359.232324	29893.78657314629	8.0	8	1.4142135623730951	1.4142135623730951
1599250359.62702	1599250359.62702	29894.788577154308	6.0	6	1.224744871391589	1.224744871391589
1599250360.03626	1599250360.03626	29895.790581162324	8.0	8	1.4142135623730951	1.4142135623730951
1599250360.4243517	1599250360.4243517	29896.79258517034	5.0	5	1.118033988749895	1.118033988749895
1599250360.822946	1599250360.822946	29897.794589178357	5.0	5	1.118033988749895	1.118033988749895
1599250361.2249577	1599250361.2249577	29898.796593186373	8.0	8	1.4142135623730951	1.4142135623730951
1599250361.6172688	1599250361.6172688	29899.79859719439	5.0	5	1.118033988749895	1.118033988749895
1599250362.017394	1599250362.017394	29900.800601202405	6.0	6	1.224744871391589	1.224744871391589
1599250362.4036963	1599250362.4036963	29901.80260521042	9.0	9	1.5	1.5