# <?xml version="1.0" ?>
# <DataFileHeader>
#   <Variables>
#     <Element name="PulseProgram" type="dict">
#       <Element name="PulseProgram" type="str">C:/Users/ions/Documents/IonControl/project_dir/QuditLab/config/PulseProgramsPlus/Ablation_NeutralFluorescence.ppp</Element>
#       <Element name="NULL" type="Quantity">0</Element>
#       <Element name="FFFFFFFF" type="Quantity">18446744073709551615</Element>
#       <Element name="INTERRUPT_EXITCODE" type="Quantity">18446198715942174720</Element>
#       <Element name="InitializationShutter" type="int">5154</Element>
#       <Element name="NaturalAblation_mask" type="int">256</Element>
#       <Element name="NaturalAblation" type="int">256</Element>
#       <Element name="EndShutter" type="int">5154</Element>
#       <Element name="ShutterDelayTime" type="Quantity">0.5 s</Element>
#       <Element name="WindowStartTime" type="Quantity">145 us</Element>
#       <Element name="DetectTime" type="Quantity">20 us</Element>
#       <Element name="DummyVar" type="int">0</Element>
#       <Element name="experiments" type="int">1</Element>
#       <Element name="DetectCounters" type="int">1</Element>
#       <Element name="endLabel" type="Quantity">18446744073709551615</Element>
#       <Element name="experimentsleft" type="Quantity">100</Element>
#       <Element name="currentexperiment" type="Quantity">0</Element>
#       <Element name="inlinevar_1" type="Quantity">1</Element>
#     </Element>
#     <Element name="Scan" type="dict">
#       <Element name="scanParameter" type="str">DummyVar</Element>
#       <Element name="scanTarget" type="str">Internal</Element>
#       <Element name="scantype" type="int">0</Element>
#       <Element name="scanMode" type="int">0</Element>
#       <Element name="xUnit" type="str"></Element>
#       <Element name="xExpression" type="str"></Element>
#       <Element name="loadPP" type="bool">True</Element>
#       <Element name="loadPPName" type="str">Ablation_NeutralFluorescence_Rad.ppp</Element>
#       <Element name="parallelInternalScanParameter" type="str">None</Element>
#     </Element>
#     <ColumnSpec>timeTickFirst, timeTickLast, x, PMT Count, PMT Count_raw, PMT Count_bottom, PMT Count_top</ColumnSpec>
#     <Element name="comment" type="str"></Element>
#     <Element name="lastDataAquired" type="datetime">2020-09-04 20:08:19.231815+00:00</Element>
#     <Element name="name" type="str"></Element>
#     <Element name="traceCreation" type="datetime">2020-09-04 20:06:36.418172+00:00</Element>
#     <Element name="traceFinalized" type="datetime">2020-09-04 20:08:19.798391+00:00</Element>
#     <TracePlottingList>
#       <TracePlotting _bottomColumn="PMT Count_bottom" _filtColumn="None" _fitFunction="None" _heightColumn="height" _rawColumn="PMT Count_raw" _topColumn="PMT Count_top" _xColumn="x" _yColumn="PMT Count" fill="True" name="PMT Count" properties="&lt;trace.PlottedTrace.PlottedTraceProperties object at 0x000002A984988400&gt;" style="0" type="0" windowName="Scan Data" xAxisLabel="DummyVar" xAxisUnit="" yAxisLabel="None">
#         <PlottedTraceProperties averageSameX="False" averageType="0" combinePoints="0"/>
#       </TracePlotting>
#     </TracePlottingList>
#   </Variables>
# </DataFileHeader>
1599249995.5692267	1599249995.5692267	29750.5	19.0	19	2.179449471770337	2.179449471770337
1599249996.4173634	1599249996.4173634	29751.502004008016	15.0	15	1.9364916731037085	1.9364916731037085
1599249996.799149	1599249996.799149	29752.504008016032	12.0	12	1.7320508075688772	1.7320508075688772
1599249997.2331357	1599249997.2331357	29753.50601202405	20.0	20	2.23606797749979	2.23606797749979
1599249997.4775596	1599249997.4775596	29754.508016032065	19.0	19	2.179449471770337	2.179449471770337
1599249997.8814013	1599249997.8814013	29755.51002004008	19.0	19	2.179449471770337	2.179449471770337
1599249998.275826	1599249998.275826	29756.512024048097	26.0	26	2.5495097567963922	2.5495097567963922
1599249998.635273	1599249998.635273	29757.514028056114	15.0	15	1.9364916731037085	1.9364916731037085
1599249999.0196457	1599249999.0196457	29758.51603206413	20.0	20	2.23606797749979	2.23606797749979
1599249999.408911	1599249999.408911	29759.518036072146	12.0	12	1.7320508075688772	1.7320508075688772
1599249999.792299	1599249999.792299	29760.52004008016	11.0	11	1.6583123951777	1.6583123951777
1599250000.1932757	1599250000.1932757	29761.522044088175	8.0	8	1.4142135623730951	1.4142135623730951
1599250000.8302386	1599250000.8302386	29762.52404809619	12.0	12	1.7320508075688772	1.7320508075688772
1599250000.9507785	1599250000.9507785	29763.526052104207	6.0	6	1.224744871391589	1.224744871391589
1599250001.3363104	1599250001.3363104	29764.528056112224	8.0	8	1.4142135623730951	1.4142135623730951
1599250001.7258723	1599250001.7258723	29765.53006012024	11.0	11	1.6583123951777	1.6583123951777
1599250002.1136093	1599250002.1136093	29766.532064128256	13.0	13	1.8027756377319946	1.8027756377319946
1599250002.5076504	1599250002.5076504	29767.534068136272	10.0	10	1.5811388300841898	1.5811388300841898
1599250002.8888366	1599250002.8888366	29768.53607214429	11.0	11	1.6583123951777	1.6583123951777
1599250003.2776155	1599250003.2776155	29769.538076152305	14.0	14	1.8708286933869707	1.8708286933869707
1599250003.6593745	1599250003.6593745	29770.54008016032	7.0	7	1.3228756555322954	1.3228756555322954
1599250004.080235	1599250004.080235	29771.542084168337	7.0	7	1.3228756555322954	1.3228756555322954
1599250004.5065851	1599250004.5065851	29772.544088176353	10.0	10	1.5811388300841898	1.5811388300841898
1599250004.9293528	1599250004.9293528	29773.54609218437	14.0	14	1.8708286933869707	1.8708286933869707
1599250005.3546479	1599250005.3546479	29774.548096192386	7.0	7	1.3228756555322954	1.3228756555322954
1599250005.777146	1599250005.777146	29775.550100200402	5.0	5	1.118033988749895	1.118033988749895
1599250006.2033346	1599250006.2033346	29776.55210420842	5.0	5	1.118033988749895	1.118033988749895
1599250006.6312547	1599250006.6312547	29777.554108216435	8.0	8	1.4142135623730951	1.4142135623730951
1599250007.0593612	1599250007.0593612	29778.556112224447	6.0	6	1.224744871391589	1.224744871391589
1599250007.487692	1599250007.487692	29779.558116232463	15.0	15	1.9364916731037085	1.9364916731037085
1599250007.905217	1599250007.905217	29780.56012024048	15.0	15	1.9364916731037085	1.9364916731037085
1599250008.4163158	1599250008.4163158	29781.562124248496	15.0	15	1.9364916731037085	1.9364916731037085
1599250008.760592	1599250008.760592	29782.564128256512	11.0	11	1.6583123951777	1.6583123951777
1599250009.1944525	1599250009.1944525	29783.56613226453	12.0	12	1.7320508075688772	1.7320508075688772
1599250009.61137	1599250009.61137	29784.568136272545	16.0	16	2.0	2.0
1599250010.0334373	1599250010.0334373	29785.57014028056	20.0	20	2.23606797749979	2.23606797749979
1599250010.46822	1599250010.46822	29786.572144288577	18.0	18	2.1213203435596424	2.1213203435596424
1599250010.8942554	1599250010.8942554	29787.574148296593	15.0	15	1.9364916731037085	1.9364916731037085
1599250011.3958006	1599250011.3958006	29788.57615230461	16.0	16	2.0	2.0
1599250011.7329144	1599250011.7329144	29789.578156312626	9.0	9	1.5	1.5
1599250012.164987	1599250012.164987	29790.580160320642	7.0	7	1.3228756555322954	1.3228756555322954
1599250012.63032	1599250012.63032	29791.582164328658	10.0	10	1.5811388300841898	1.5811388300841898
1599250013.0882847	1599250013.0882847	29792.584168336674	9.0	9	1.5	1.5
1599250013.5652757	1599250013.5652757	29793.58617234469	18.0	18	2.1213203435596424	2.1213203435596424
1599250014.024273	1599250014.024273	29794.588176352707	21.0	21	2.29128784747792	2.29128784747792
1599250014.4938028	1599250014.4938028	29795.590180360723	7.0	7	1.3228756555322954	1.3228756555322954
1599250014.9619699	1599250014.9619699	29796.59218436874	8.0	8	1.4142135623730951	1.4142135623730951
1599250015.4319935	1599250015.4319935	29797.594188376752	6.0	6	1.224744871391589	1.224744871391589
1599250015.8941958	1599250015.8941958	29798.596192384768	6.0	6	1.224744871391589	1.224744871391589
1599250016.3667085	1599250016.3667085	29799.598196392784	14.0	14	1.8708286933869707	1.8708286933869707
1599250016.834468	1599250016.834468	29800.6002004008	8.0	8	1.4142135623730951	1.4142135623730951
1599250017.3429177	1599250017.3429177	29801.602204408817	6.0	6	1.224744871391589	1.224744871391589
1599250017.7656658	1599250017.7656658	29802.604208416833	11.0	11	1.6583123951777	1.6583123951777
1599250018.235596	1599250018.235596	29803.60621242485	8.0	8	1.4142135623730951	1.4142135623730951
1599250018.700966	1599250018.700966	29804.608216432865	8.0	8	1.4142135623730951	1.4142135623730951
1599250019.1746957	1599250019.1746957	29805.61022044088	9.0	9	1.5	1.5
1599250019.634214	1599250019.634214	29806.612224448898	8.0	8	1.4142135623730951	1.4142135623730951
1599250020.1199684	1599250020.1199684	29807.614228456914	12.0	12	1.7320508075688772	1.7320508075688772
1599250020.579047	1599250020.579047	29808.61623246493	10.0	10	1.5811388300841898	1.5811388300841898
1599250021.0452914	1599250021.0452914	29809.618236472947	8.0	8	1.4142135623730951	1.4142135623730951
1599250021.5062015	1599250021.5062015	29810.620240480963	11.0	11	1.6583123951777	1.6583123951777
1599250022.0136037	1599250022.0136037	29811.62224448898	7.0	7	1.3228756555322954	1.3228756555322954
1599250022.5273135	1599250022.5273135	29812.624248496995	14.0	14	1.8708286933869707	1.8708286933869707
1599250023.0349965	1599250023.0349965	29813.62625250501	3.0	3	0.8660254037844386	0.8660254037844386
1599250023.5509336	1599250023.5509336	29814.628256513028	10.0	10	1.5811388300841898	1.5811388300841898
1599250024.064857	1599250024.064857	29815.63026052104	7.0	7	1.3228756555322954	1.3228756555322954
1599250024.5858934	1599250024.5858934	29816.632264529057	9.0	9	1.5	1.5
1599250025.1046424	1599250025.1046424	29817.634268537073	10.0	10	1.5811388300841898	1.5811388300841898
1599250025.6140127	1599250025.6140127	29818.63627254509	8.0	8	1.4142135623730951	1.4142135623730951
1599250026.1338036	1599250026.1338036	29819.638276553105	14.0	14	1.8708286933869707	1.8708286933869707
1599250026.6485708	1599250026.6485708	29820.64028056112	5.0	5	1.118033988749895	1.118033988749895
1599250027.1676736	1599250027.1676736	29821.642284569138	9.0	9	1.5	1.5
1599250027.6698236	1599250027.6698236	29822.644288577154	5.0	5	1.118033988749895	1.118033988749895
1599250028.1859713	1599250028.1859713	29823.64629258517	10.0	10	1.5811388300841898	1.5811388300841898
1599250028.7056105	1599250028.7056105	29824.648296593186	11.0	11	1.6583123951777	1.6583123951777
1599250029.2301455	1599250029.2301455	29825.650300601203	16.0	16	2.0	2.0
1599250029.730006	1599250029.730006	29826.65230460922	16.0	16	2.0	2.0
1599250030.2424886	1599250030.2424886	29827.654308617235	20.0	20	2.23606797749979	2.23606797749979
1599250030.7619452	1599250030.7619452	29828.65631262525	21.0	21	2.29128784747792	2.29128784747792
1599250031.2900553	1599250031.2900553	29829.658316633268	16.0	16	2.0	2.0
1599250031.80254	1599250031.80254	29830.660320641284	21.0	21	2.29128784747792	2.29128784747792
1599250032.3561938	1599250032.3561938	29831.6623246493	8.0	8	1.4142135623730951	1.4142135623730951
1599250032.9108827	1599250032.9108827	29832.664328657316	13.0	13	1.8027756377319946	1.8027756377319946
1599250033.4787896	1599250033.4787896	29833.666332665332	13.0	13	1.8027756377319946	1.8027756377319946
1599250034.0474296	1599250034.0474296	29834.668336673345	13.0	13	1.8027756377319946	1.8027756377319946
1599250034.6119342	1599250034.6119342	29835.67034068136	15.0	15	1.9364916731037085	1.9364916731037085
1599250035.173832	1599250035.173832	29836.672344689377	7.0	7	1.3228756555322954	1.3228756555322954
1599250035.7582886	1599250035.7582886	29837.674348697394	11.0	11	1.6583123951777	1.6583123951777
1599250036.3223643	1599250036.3223643	29838.67635270541	10.0	10	1.5811388300841898	1.5811388300841898
1599250036.8858688	1599250036.8858688	29839.678356713426	11.0	11	1.6583123951777	1.6583123951777
1599250037.4494648	1599250037.4494648	29840.680360721442	11.0	11	1.6583123951777	1.6583123951777
1599250038.013319	1599250038.013319	29841.68236472946	19.0	19	2.179449471770337	2.179449471770337
1599250038.5718255	1599250038.5718255	29842.684368737475	12.0	12	1.7320508075688772	1.7320508075688772
1599250039.1480134	1599250039.1480134	29843.68637274549	10.0	10	1.5811388300841898	1.5811388300841898
1599250039.7166743	1599250039.7166743	29844.688376753507	11.0	11	1.6583123951777	1.6583123951777
1599250040.278443	1599250040.278443	29845.690380761524	15.0	15	1.9364916731037085	1.9364916731037085
1599250040.845082	1599250040.845082	29846.69238476954	12.0	12	1.7320508075688772	1.7320508075688772
1599250041.407796	1599250041.407796	29847.694388777556	12.0	12	1.7320508075688772	1.7320508075688772
1599250042.0233152	1599250042.0233152	29848.696392785572	14.0	14	1.8708286933869707	1.8708286933869707
1599250042.542953	1599250042.542953	29849.69839679359	16.0	16	2.0	2.0
1599250043.113794	1599250043.113794	29850.700400801605	16.0	16	2.0	2.0
1599250043.709602	1599250043.709602	29851.70240480962	7.0	7	1.3228756555322954	1.3228756555322954
1599250044.3390744	1599250044.3390744	29852.704408817634	10.0	10	1.5811388300841898	1.5811388300841898
1599250044.955926	1599250044.955926	29853.70641282565	9.0	9	1.5	1.5
1599250045.5909448	1599250045.5909448	29854.708416833666	12.0	12	1.7320508075688772	1.7320508075688772
1599250046.2144237	1599250046.2144237	29855.710420841682	9.0	9	1.5	1.5
1599250046.8241844	1599250046.8241844	29856.7124248497	4.0	4	1.0	1.0
1599250047.4605467	1599250047.4605467	29857.714428857715	7.0	7	1.3228756555322954	1.3228756555322954
1599250048.079806	1599250048.079806	29858.71643286573	15.0	15	1.9364916731037085	1.9364916731037085
1599250048.6966364	1599250048.6966364	29859.718436873747	13.0	13	1.8027756377319946	1.8027756377319946
1599250049.3172805	1599250049.3172805	29860.720440881763	9.0	9	1.5	1.5
1599250049.9520192	1599250049.9520192	29861.72244488978	13.0	13	1.8027756377319946	1.8027756377319946
1599250050.5699828	1599250050.5699828	29862.724448897796	11.0	11	1.6583123951777	1.6583123951777
1599250051.2013257	1599250051.2013257	29863.726452905812	13.0	13	1.8027756377319946	1.8027756377319946
1599250051.806814	1599250051.806814	29864.72845691383	14.0	14	1.8708286933869707	1.8708286933869707
1599250052.4406676	1599250052.4406676	29865.730460921844	11.0	11	1.6583123951777	1.6583123951777
1599250053.055487	1599250053.055487	29866.73246492986	15.0	15	1.9364916731037085	1.9364916731037085
1599250053.6893396	1599250053.6893396	29867.734468937877	12.0	12	1.7320508075688772	1.7320508075688772
1599250054.313138	1599250054.313138	29868.736472945893	10.0	10	1.5811388300841898	1.5811388300841898
1599250054.9435744	1599250054.9435744	29869.73847695391	7.0	7	1.3228756555322954	1.3228756555322954
1599250055.5621545	1599250055.5621545	29870.740480961926	12.0	12	1.7320508075688772	1.7320508075688772
1599250056.2163682	1599250056.2163682	29871.74248496994	8.0	8	1.4142135623730951	1.4142135623730951
1599250056.9087017	1599250056.9087017	29872.744488977954	11.0	11	1.6583123951777	1.6583123951777
1599250057.594341	1599250057.594341	29873.74649298597	12.0	12	1.7320508075688772	1.7320508075688772
1599250058.275128	1599250058.275128	29874.748496993987	13.0	13	1.8027756377319946	1.8027756377319946
1599250058.9670944	1599250058.9670944	29875.750501002003	9.0	9	1.5	1.5
1599250059.7071533	1599250059.7071533	29876.75250501002	5.0	5	1.118033988749895	1.118033988749895
1599250060.344388	1599250060.344388	29877.754509018036	6.0	6	1.224744871391589	1.224744871391589
1599250061.0153072	1599250061.0153072	29878.756513026052	8.0	8	1.4142135623730951	1.4142135623730951
1599250061.6928203	1599250061.6928203	29879.758517034068	5.0	5	1.118033988749895	1.118033988749895
1599250062.393492	1599250062.393492	29880.760521042084	8.0	8	1.4142135623730951	1.4142135623730951
1599250063.073487	1599250063.073487	29881.7625250501	8.0	8	1.4142135623730951	1.4142135623730951
1599250063.7674494	1599250063.7674494	29882.764529058117	6.0	6	1.224744871391589	1.224744871391589
1599250064.4963832	1599250064.4963832	29883.766533066133	9.0	9	1.5	1.5
1599250065.1306872	1599250065.1306872	29884.76853707415	8.0	8	1.4142135623730951	1.4142135623730951
1599250065.8128226	1599250065.8128226	29885.770541082165	9.0	9	1.5	1.5
1599250066.5138788	1599250066.5138788	29886.77254509018	5.0	5	1.118033988749895	1.118033988749895
1599250067.2926667	1599250067.2926667	29887.774549098198	8.0	8	1.4142135623730951	1.4142135623730951
1599250067.8814785	1599250067.8814785	29888.776553106214	9.0	9	1.5	1.5
1599250068.5590556	1599250068.5590556	29889.778557114227	9.0	9	1.5	1.5
1599250069.2379248	1599250069.2379248	29890.780561122243	7.0	7	1.3228756555322954	1.3228756555322954
1599250069.9651318	1599250069.9651318	29891.78256513026	11.0	11	1.6583123951777	1.6583123951777
1599250070.7147033	1599250070.7147033	29892.784569138275	13.0	13	1.8027756377319946	1.8027756377319946
1599250071.4701326	1599250071.4701326	29893.78657314629	7.0	7	1.3228756555322954	1.3228756555322954
1599250072.2301064	1599250072.2301064	29894.788577154308	10.0	10	1.5811388300841898	1.5811388300841898
1599250072.9820077	1599250072.9820077	29895.790581162324	11.0	11	1.6583123951777	1.6583123951777
1599250073.7213714	1599250073.7213714	29896.79258517034	16.0	16	2.0	2.0
1599250074.4775426	1599250074.4775426	29897.794589178357	12.0	12	1.7320508075688772	1.7320508075688772
1599250075.2234998	1599250075.2234998	29898.796593186373	13.0	13	1.8027756377319946	1.8027756377319946
1599250075.9735928	1599250075.9735928	29899.79859719439	15.0	15	1.9364916731037085	1.9364916731037085
1599250076.722861	1599250076.722861	29900.800601202405	12.0	12	1.7320508075688772	1.7320508075688772
1599250077.471576	1599250077.471576	29901.80260521042	13.0	13	1.8027756377319946	1.8027756377319946
1599250078.2177825	1599250078.2177825	29902.804609218438	11.0	11	1.6583123951777	1.6583123951777
1599250078.972284	1599250078.972284	29903.806613226454	8.0	8	1.4142135623730951	1.4142135623730951
1599250079.7166674	1599250079.7166674	29904.80861723447	5.0	5	1.118033988749895	1.118033988749895
1599250080.466096	1599250080.466096	29905.810621242486	8.0	8	1.4142135623730951	1.4142135623730951
1599250081.230736	1599250081.230736	29906.812625250503	6.0	6	1.224744871391589	1.224744871391589
1599250081.984492	1599250081.984492	29907.814629258515	3.0	3	0.8660254037844386	0.8660254037844386
1599250082.9122772	1599250082.9122772	29908.81663326653	9.0	9	1.5	1.5
1599250083.4733243	1599250083.4733243	29909.818637274548	9.0	9	1.5	1.5
1599250084.2245953	1599250084.2245953	29910.820641282564	3.0	3	0.8660254037844386	0.8660254037844386
1599250084.9666011	1599250084.9666011	29911.82264529058	7.0	7	1.3228756555322954	1.3228756555322954
1599250085.7236364	1599250085.7236364	29912.824649298596	8.0	8	1.4142135623730951	1.4142135623730951
1599250086.4809535	1599250086.4809535	29913.826653306613	15.0	15	1.9364916731037085	1.9364916731037085
1599250087.2217524	1599250087.2217524	29914.82865731463	11.0	11	1.6583123951777	1.6583123951777
1599250087.9837167	1599250087.9837167	29915.830661322645	3.0	3	0.8660254037844386	0.8660254037844386
1599250088.7342458	1599250088.7342458	29916.83266533066	14.0	14	1.8708286933869707	1.8708286933869707
1599250089.4852288	1599250089.4852288	29917.834669338677	16.0	16	2.0	2.0
1599250090.2377956	1599250090.2377956	29918.836673346694	9.0	9	1.5	1.5
1599250090.9849546	1599250090.9849546	29919.83867735471	9.0	9	1.5	1.5
1599250091.7343476	1599250091.7343476	29920.840681362726	9.0	9	1.5	1.5
1599250092.4765007	1599250092.4765007	29921.842685370742	12.0	12	1.7320508075688772	1.7320508075688772
1599250093.230007	1599250093.230007	29922.84468937876	8.0	8	1.4142135623730951	1.4142135623730951
1599250094.4945087	1599250094.4945087	29923.846693386775	3.0	3	0.8660254037844386	0.8660254037844386
1599250095.1556087	1599250095.1556087	29924.84869739479	9.0	9	1.5	1.5
1599250095.8685703	1599250095.8685703	29925.850701402807	6.0	6	1.224744871391589	1.224744871391589
1599250096.422559	1599250096.422559	29926.85270541082	3.0	3	0.8660254037844386	0.8660254037844386
1599250097.1370938	1599250097.1370938	29927.854709418836	7.0	7	1.3228756555322954	1.3228756555322954
1599250097.878878	1599250097.878878	29928.856713426852	7.0	7	1.3228756555322954	1.3228756555322954
1599250098.490105	1599250098.490105	29929.85871743487	8.0	8	1.4142135623730951	1.4142135623730951