# <?xml version="1.0" ?>
# <DataFileHeader>
#   <Variables>
#     <Element name="PulseProgram" type="dict">
#       <Element name="PulseProgram" type="str">C:/Users/ions/Documents/IonControl/project_dir/QuditLab/config/PulseProgramsPlus/Ablation_NeutralFluorescence.ppp</Element>
#       <Element name="NULL" type="Quantity">0</Element>
#       <Element name="FFFFFFFF" type="Quantity">18446744073709551615</Element>
#       <Element name="INTERRUPT_EXITCODE" type="Quantity">18446198715942174720</Element>
#       <Element name="InitializationShutter" type="int">5154</Element>
#       <Element name="NaturalAblation_mask" type="int">256</Element>
#       <Element name="NaturalAblation" type="int">256</Element>
#       <Element name="EndShutter" type="int">5154</Element>
#       <Element name="ShutterDelayTime" type="Quantity">0.5 s</Element>
#       <Element name="WindowStartTime" type="Quantity">145 us</Element>
#       <Element name="DetectTime" type="Quantity">20 us</Element>
#       <Element name="DummyVar" type="int">0</Element>
#       <Element name="experiments" type="int">1</Element>
#       <Element name="DetectCounters" type="int">1</Element>
#       <Element name="endLabel" type="Quantity">18446744073709551615</Element>
#       <Element name="experimentsleft" type="Quantity">100</Element>
#       <Element name="currentexperiment" type="Quantity">0</Element>
#       <Element name="inlinevar_1" type="Quantity">1</Element>
#     </Element>
#     <Element name="Scan" type="dict">
#       <Element name="scanParameter" type="str">DummyVar</Element>
#       <Element name="scanTarget" type="str">Internal</Element>
#       <Element name="scantype" type="int">0</Element>
#       <Element name="scanMode" type="int">0</Element>
#       <Element name="xUnit" type="str"></Element>
#       <Element name="xExpression" type="str"></Element>
#       <Element name="loadPP" type="bool">True</Element>
#       <Element name="loadPPName" type="str">Ablation_NeutralFluorescence_Rad.ppp</Element>
#       <Element name="parallelInternalScanParameter" type="str">None</Element>
#     </Element>
#     <ColumnSpec>timeTickFirst, timeTickLast, x, PMT Count, PMT Count_raw, PMT Count_bottom, PMT Count_top</ColumnSpec>
#     <Element name="comment" type="str"></Element>
#     <Element name="lastDataAquired" type="datetime">2020-09-04 20:16:32.168634+00:00</Element>
#     <Element name="name" type="str"></Element>
#     <Element name="traceCreation" type="datetime">2020-09-04 20:15:11.105779+00:00</Element>
#     <Element name="traceFinalized" type="datetime">2020-09-04 20:16:32.432243+00:00</Element>
#     <TracePlottingList>
#       <TracePlotting _bottomColumn="PMT Count_bottom" _filtColumn="None" _fitFunction="None" _heightColumn="height" _rawColumn="PMT Count_raw" _topColumn="PMT Count_top" _xColumn="x" _yColumn="PMT Count" fill="True" name="PMT Count" properties="&lt;trace.PlottedTrace.PlottedTraceProperties object at 0x000002A98497C4A8&gt;" style="0" type="0" windowName="Scan Data" xAxisLabel="DummyVar" xAxisUnit="" yAxisLabel="None">
#         <PlottedTraceProperties averageSameX="False" averageType="0" combinePoints="0"/>
#       </TracePlotting>
#     </TracePlottingList>
#   </Variables>
# </DataFileHeader>
1599250510.236821	1599250510.236821	29750.5	11.0	11	1.6583123951777	1.6583123951777
1599250511.104154	1599250511.104154	29751.502004008016	13.0	13	1.8027756377319946	1.8027756377319946
1599250511.4693315	1599250511.4693315	29752.504008016032	8.0	8	1.4142135623730951	1.4142135623730951
1599250511.8583922	1599250511.8583922	29753.50601202405	12.0	12	1.7320508075688772	1.7320508075688772
1599250512.096557	1599250512.096557	29754.508016032065	15.0	15	1.9364916731037085	1.9364916731037085
1599250512.4688396	1599250512.4688396	29755.51002004008	14.0	14	1.8708286933869707	1.8708286933869707
1599250512.824095	1599250512.824095	29756.512024048097	16.0	16	2.0	2.0
1599250513.2096806	1599250513.2096806	29757.514028056114	4.0	4	1.0	1.0
1599250513.5683274	1599250513.5683274	29758.51603206413	14.0	14	1.8708286933869707	1.8708286933869707
1599250513.93327	1599250513.93327	29759.518036072146	11.0	11	1.6583123951777	1.6583123951777
1599250514.2960322	1599250514.2960322	29760.52004008016	15.0	15	1.9364916731037085	1.9364916731037085
1599250514.6636708	1599250514.6636708	29761.522044088175	10.0	10	1.5811388300841898	1.5811388300841898
1599250515.0380177	1599250515.0380177	29762.52404809619	16.0	16	2.0	2.0
1599250515.4105315	1599250515.4105315	29763.526052104207	12.0	12	1.7320508075688772	1.7320508075688772
1599250515.800099	1599250515.800099	29764.528056112224	15.0	15	1.9364916731037085	1.9364916731037085
1599250516.1994035	1599250516.1994035	29765.53006012024	10.0	10	1.5811388300841898	1.5811388300841898
1599250516.6076207	1599250516.6076207	29766.532064128256	14.0	14	1.8708286933869707	1.8708286933869707
1599250517.0174572	1599250517.0174572	29767.534068136272	13.0	13	1.8027756377319946	1.8027756377319946
1599250517.4101396	1599250517.4101396	29768.53607214429	9.0	9	1.5	1.5
1599250517.8162415	1599250517.8162415	29769.538076152305	10.0	10	1.5811388300841898	1.5811388300841898
1599250518.2256787	1599250518.2256787	29770.54008016032	16.0	16	2.0	2.0
1599250518.632023	1599250518.632023	29771.542084168337	4.0	4	1.0	1.0
1599250519.033522	1599250519.033522	29772.544088176353	7.0	7	1.3228756555322954	1.3228756555322954
1599250519.4328306	1599250519.4328306	29773.54609218437	6.0	6	1.224744871391589	1.224744871391589
1599250519.8386483	1599250519.8386483	29774.548096192386	13.0	13	1.8027756377319946	1.8027756377319946
1599250520.239886	1599250520.239886	29775.550100200402	13.0	13	1.8027756377319946	1.8027756377319946
1599250520.6486685	1599250520.6486685	29776.55210420842	10.0	10	1.5811388300841898	1.5811388300841898
1599250521.058677	1599250521.058677	29777.554108216435	9.0	9	1.5	1.5
1599250521.4662793	1599250521.4662793	29778.556112224447	7.0	7	1.3228756555322954	1.3228756555322954
1599250521.8694277	1599250521.8694277	29779.558116232463	16.0	16	2.0	2.0
1599250522.265221	1599250522.265221	29780.56012024048	14.0	14	1.8708286933869707	1.8708286933869707
1599250522.67381	1599250522.67381	29781.562124248496	10.0	10	1.5811388300841898	1.5811388300841898
1599250523.0926685	1599250523.0926685	29782.564128256512	6.0	6	1.224744871391589	1.224744871391589
1599250523.491381	1599250523.491381	29783.56613226453	12.0	12	1.7320508075688772	1.7320508075688772
1599250523.9124517	1599250523.9124517	29784.568136272545	14.0	14	1.8708286933869707	1.8708286933869707
1599250524.358291	1599250524.358291	29785.57014028056	9.0	9	1.5	1.5
1599250524.8113434	1599250524.8113434	29786.572144288577	12.0	12	1.7320508075688772	1.7320508075688772
1599250525.2519283	1599250525.2519283	29787.574148296593	13.0	13	1.8027756377319946	1.8027756377319946
1599250525.6970072	1599250525.6970072	29788.57615230461	14.0	14	1.8708286933869707	1.8708286933869707
1599250526.151001	1599250526.151001	29789.578156312626	16.0	16	2.0	2.0
1599250526.5883899	1599250526.5883899	29790.580160320642	16.0	16	2.0	2.0
1599250527.0423408	1599250527.0423408	29791.582164328658	26.0	26	2.5495097567963922	2.5495097567963922
1599250527.472419	1599250527.472419	29792.584168336674	28.0	28	2.6457513110645907	2.6457513110645907
1599250527.915225	1599250527.915225	29793.58617234469	21.0	21	2.29128784747792	2.29128784747792
1599250528.3665326	1599250528.3665326	29794.588176352707	19.0	19	2.179449471770337	2.179449471770337
1599250528.807843	1599250528.807843	29795.590180360723	18.0	18	2.1213203435596424	2.1213203435596424
1599250529.258751	1599250529.258751	29796.59218436874	22.0	22	2.345207879911715	2.345207879911715
1599250529.6978295	1599250529.6978295	29797.594188376752	15.0	15	1.9364916731037085	1.9364916731037085
1599250530.1557474	1599250530.1557474	29798.596192384768	11.0	11	1.6583123951777	1.6583123951777
1599250530.6013844	1599250530.6013844	29799.598196392784	17.0	17	2.0615528128088303	2.0615528128088303
1599250531.0401611	1599250531.0401611	29800.6002004008	17.0	17	2.0615528128088303	2.0615528128088303
1599250531.496923	1599250531.496923	29801.602204408817	15.0	15	1.9364916731037085	1.9364916731037085
1599250531.9291403	1599250531.9291403	29802.604208416833	22.0	22	2.345207879911715	2.345207879911715
1599250532.3775153	1599250532.3775153	29803.60621242485	12.0	12	1.7320508075688772	1.7320508075688772
1599250532.842839	1599250532.842839	29804.608216432865	10.0	10	1.5811388300841898	1.5811388300841898
1599250533.3463213	1599250533.3463213	29805.61022044088	8.0	8	1.4142135623730951	1.4142135623730951
1599250533.830252	1599250533.830252	29806.612224448898	10.0	10	1.5811388300841898	1.5811388300841898
1599250534.3165596	1599250534.3165596	29807.614228456914	14.0	14	1.8708286933869707	1.8708286933869707
1599250534.8022642	1599250534.8022642	29808.61623246493	12.0	12	1.7320508075688772	1.7320508075688772
1599250535.2947848	1599250535.2947848	29809.618236472947	19.0	19	2.179449471770337	2.179449471770337
1599250535.7885516	1599250535.7885516	29810.620240480963	9.0	9	1.5	1.5
1599250536.270657	1599250536.270657	29811.62224448898	10.0	10	1.5811388300841898	1.5811388300841898
1599250536.7825503	1599250536.7825503	29812.624248496995	14.0	14	1.8708286933869707	1.8708286933869707
1599250537.2646875	1599250537.2646875	29813.62625250501	15.0	15	1.9364916731037085	1.9364916731037085
1599250537.7475703	1599250537.7475703	29814.628256513028	19.0	19	2.179449471770337	2.179449471770337
1599250538.232992	1599250538.232992	29815.63026052104	16.0	16	2.0	2.0
1599250538.7252393	1599250538.7252393	29816.632264529057	11.0	11	1.6583123951777	1.6583123951777
1599250539.2210398	1599250539.2210398	29817.634268537073	23.0	23	2.3979157616563596	2.3979157616563596
1599250539.70407	1599250539.70407	29818.63627254509	14.0	14	1.8708286933869707	1.8708286933869707
1599250540.2004132	1599250540.2004132	29819.638276553105	8.0	8	1.4142135623730951	1.4142135623730951
1599250540.679327	1599250540.679327	29820.64028056112	17.0	17	2.0615528128088303	2.0615528128088303
1599250541.1770647	1599250541.1770647	29821.642284569138	7.0	7	1.3228756555322954	1.3228756555322954
1599250541.6624799	1599250541.6624799	29822.644288577154	15.0	15	1.9364916731037085	1.9364916731037085
1599250542.1477103	1599250542.1477103	29823.64629258517	14.0	14	1.8708286933869707	1.8708286933869707
1599250542.671571	1599250542.671571	29824.648296593186	13.0	13	1.8027756377319946	1.8027756377319946
1599250543.2075744	1599250543.2075744	29825.650300601203	11.0	11	1.6583123951777	1.6583123951777
1599250543.7522006	1599250543.7522006	29826.65230460922	13.0	13	1.8027756377319946	1.8027756377319946
1599250544.285006	1599250544.285006	29827.654308617235	7.0	7	1.3228756555322954	1.3228756555322954
1599250544.8338783	1599250544.8338783	29828.65631262525	9.0	9	1.5	1.5
1599250545.3615837	1599250545.3615837	29829.658316633268	13.0	13	1.8027756377319946	1.8027756377319946
1599250545.8975308	1599250545.8975308	29830.660320641284	12.0	12	1.7320508075688772	1.7320508075688772
1599250546.4465995	1599250546.4465995	29831.6623246493	18.0	18	2.1213203435596424	2.1213203435596424
1599250546.9792864	1599250546.9792864	29832.664328657316	11.0	11	1.6583123951777	1.6583123951777
1599250547.5250332	1599250547.5250332	29833.666332665332	10.0	10	1.5811388300841898	1.5811388300841898
1599250548.0531938	1599250548.0531938	29834.668336673345	16.0	16	2.0	2.0
1599250548.5923707	1599250548.5923707	29835.67034068136	18.0	18	2.1213203435596424	2.1213203435596424
1599250549.1445942	1599250549.1445942	29836.672344689377	33.0	33	2.8722813232690143	2.8722813232690143
1599250549.6843386	1599250549.6843386	29837.674348697394	19.0	19	2.179449471770337	2.179449471770337
1599250550.220373	1599250550.220373	29838.67635270541	16.0	16	2.0	2.0
1599250550.7668939	1599250550.7668939	29839.678356713426	19.0	19	2.179449471770337	2.179449471770337
1599250551.2974823	1599250551.2974823	29840.680360721442	9.0	9	1.5	1.5
1599250551.837761	1599250551.837761	29841.68236472946	12.0	12	1.7320508075688772	1.7320508075688772
1599250552.3691	1599250552.3691	29842.684368737475	19.0	19	2.179449471770337	2.179449471770337
1599250552.9075966	1599250552.9075966	29843.68637274549	18.0	18	2.1213203435596424	2.1213203435596424
1599250553.487717	1599250553.487717	29844.688376753507	5.0	5	1.118033988749895	1.118033988749895
1599250554.074917	1599250554.074917	29845.690380761524	10.0	10	1.5811388300841898	1.5811388300841898
1599250554.721519	1599250554.721519	29846.69238476954	11.0	11	1.6583123951777	1.6583123951777
1599250555.2586656	1599250555.2586656	29847.694388777556	12.0	12	1.7320508075688772	1.7320508075688772
1599250555.8465698	1599250555.8465698	29848.696392785572	16.0	16	2.0	2.0
1599250556.814538	1599250556.814538	29849.69839679359	5.0	5	1.118033988749895	1.118033988749895
1599250557.3849506	1599250557.3849506	29850.700400801605	5.0	5	1.118033988749895	1.118033988749895
1599250557.6334429	1599250557.6334429	29851.70240480962	5.0	5	1.118033988749895	1.118033988749895
1599250558.2167308	1599250558.2167308	29852.704408817634	13.0	13	1.8027756377319946	1.8027756377319946
1599250558.8175879	1599250558.8175879	29853.70641282565	2.0	2	0.7071067811865476	0.7071067811865476
1599250559.4118435	1599250559.4118435	29854.708416833666	4.0	4	1.0	1.0
1599250559.9990222	1599250559.9990222	29855.710420841682	13.0	13	1.8027756377319946	1.8027756377319946
1599250560.5997787	1599250560.5997787	29856.7124248497	5.0	5	1.118033988749895	1.118033988749895
1599250561.2497032	1599250561.2497032	29857.714428857715	8.0	8	1.4142135623730951	1.4142135623730951
1599250561.7810893	1599250561.7810893	29858.71643286573	9.0	9	1.5	1.5
1599250562.3706574	1599250562.3706574	29859.718436873747	11.0	11	1.6583123951777	1.6583123951777
1599250562.9663167	1599250562.9663167	29860.720440881763	9.0	9	1.5	1.5
1599250563.5537784	1599250563.5537784	29861.72244488978	12.0	12	1.7320508075688772	1.7320508075688772
1599250564.145134	1599250564.145134	29862.724448897796	13.0	13	1.8027756377319946	1.8027756377319946
1599250564.7412145	1599250564.7412145	29863.726452905812	17.0	17	2.0615528128088303	2.0615528128088303
1599250565.3749483	1599250565.3749483	29864.72845691383	9.0	9	1.5	1.5
1599250566.036076	1599250566.036076	29865.730460921844	14.0	14	1.8708286933869707	1.8708286933869707
1599250566.6721692	1599250566.6721692	29866.73246492986	14.0	14	1.8708286933869707	1.8708286933869707
1599250567.3196235	1599250567.3196235	29867.734468937877	7.0	7	1.3228756555322954	1.3228756555322954
1599250567.9809673	1599250567.9809673	29868.736472945893	9.0	9	1.5	1.5
1599250568.645033	1599250568.645033	29869.73847695391	11.0	11	1.6583123951777	1.6583123951777
1599250569.288925	1599250569.288925	29870.740480961926	12.0	12	1.7320508075688772	1.7320508075688772
1599250569.9430313	1599250569.9430313	29871.74248496994	7.0	7	1.3228756555322954	1.3228756555322954
1599250570.5888686	1599250570.5888686	29872.744488977954	10.0	10	1.5811388300841898	1.5811388300841898
1599250571.2385767	1599250571.2385767	29873.74649298597	12.0	12	1.7320508075688772	1.7320508075688772
1599250571.8886604	1599250571.8886604	29874.748496993987	5.0	5	1.118033988749895	1.118033988749895
1599250572.545042	1599250572.545042	29875.750501002003	10.0	10	1.5811388300841898	1.5811388300841898
1599250573.2010622	1599250573.2010622	29876.75250501002	12.0	12	1.7320508075688772	1.7320508075688772
1599250573.8653333	1599250573.8653333	29877.754509018036	8.0	8	1.4142135623730951	1.4142135623730951
1599250574.500565	1599250574.500565	29878.756513026052	16.0	16	2.0	2.0
1599250575.150837	1599250575.150837	29879.758517034068	8.0	8	1.4142135623730951	1.4142135623730951
1599250575.8107045	1599250575.8107045	29880.760521042084	8.0	8	1.4142135623730951	1.4142135623730951
1599250576.4508665	1599250576.4508665	29881.7625250501	13.0	13	1.8027756377319946	1.8027756377319946
1599250577.10688	1599250577.10688	29882.764529058117	8.0	8	1.4142135623730951	1.4142135623730951
1599250577.7573698	1599250577.7573698	29883.766533066133	11.0	11	1.6583123951777	1.6583123951777
1599250578.369083	1599250578.369083	29884.76853707415	6.0	6	1.224744871391589	1.224744871391589
1599250578.9548078	1599250578.9548078	29885.770541082165	7.0	7	1.3228756555322954	1.3228756555322954
1599250579.53867	1599250579.53867	29886.77254509018	6.0	6	1.224744871391589	1.224744871391589
1599250580.6183648	1599250580.6183648	29887.774549098198	8.0	8	1.4142135623730951	1.4142135623730951
1599250580.7420626	1599250580.7420626	29888.776553106214	8.0	8	1.4142135623730951	1.4142135623730951
1599250581.3019655	1599250581.3019655	29889.778557114227	5.0	5	1.118033988749895	1.118033988749895
1599250581.8957133	1599250581.8957133	29890.780561122243	8.0	8	1.4142135623730951	1.4142135623730951
1599250582.4704053	1599250582.4704053	29891.78256513026	11.0	11	1.6583123951777	1.6583123951777
1599250583.0516012	1599250583.0516012	29892.784569138275	9.0	9	1.5	1.5
1599250583.6474767	1599250583.6474767	29893.78657314629	5.0	5	1.118033988749895	1.118033988749895
1599250584.2348297	1599250584.2348297	29894.788577154308	8.0	8	1.4142135623730951	1.4142135623730951
1599250584.8217793	1599250584.8217793	29895.790581162324	8.0	8	1.4142135623730951	1.4142135623730951
1599250585.400781	1599250585.400781	29896.79258517034	6.0	6	1.224744871391589	1.224744871391589
1599250585.99476	1599250585.99476	29897.794589178357	10.0	10	1.5811388300841898	1.5811388300841898
1599250586.5711997	1599250586.5711997	29898.796593186373	7.0	7	1.3228756555322954	1.3228756555322954
1599250587.1643724	1599250587.1643724	29899.79859719439	6.0	6	1.224744871391589	1.224744871391589
1599250587.7466412	1599250587.7466412	29900.800601202405	11.0	11	1.6583123951777	1.6583123951777
1599250588.569691	1599250588.569691	29901.80260521042	13.0	13	1.8027756377319946	1.8027756377319946
1599250588.928405	1599250588.928405	29902.804609218438	17.0	17	2.0615528128088303	2.0615528128088303
1599250589.5066295	1599250589.5066295	29903.806613226454	10.0	10	1.5811388300841898	1.5811388300841898
1599250590.0546227	1599250590.0546227	29904.80861723447	9.0	9	1.5	1.5
1599250590.5836499	1599250590.5836499	29905.810621242486	10.0	10	1.5811388300841898	1.5811388300841898
1599250591.1159427	1599250591.1159427	29906.812625250503	4.0	4	1.0	1.0
1599250591.644262	1599250591.644262	29907.814629258515	7.0	7	1.3228756555322954	1.3228756555322954