# <?xml version="1.0" ?>
# <DataFileHeader>
#   <Variables>
#     <Element name="PulseProgram" type="dict">
#       <Element name="PulseProgram" type="str">C:/Users/ions/Documents/IonControl/project_dir/QuditLab/config/PulseProgramsPlus/Ablation_NeutralFluorescence.ppp</Element>
#       <Element name="NULL" type="Quantity">0</Element>
#       <Element name="FFFFFFFF" type="Quantity">18446744073709551615</Element>
#       <Element name="INTERRUPT_EXITCODE" type="Quantity">18446198715942174720</Element>
#       <Element name="InitializationShutter" type="int">5154</Element>
#       <Element name="NaturalAblation_mask" type="int">256</Element>
#       <Element name="NaturalAblation" type="int">256</Element>
#       <Element name="EndShutter" type="int">5154</Element>
#       <Element name="ShutterDelayTime" type="Quantity">0.5 s</Element>
#       <Element name="WindowStartTime" type="Quantity">145 us</Element>
#       <Element name="DetectTime" type="Quantity">20 us</Element>
#       <Element name="DummyVar" type="int">0</Element>
#       <Element name="experiments" type="int">1</Element>
#       <Element name="DetectCounters" type="int">1</Element>
#       <Element name="endLabel" type="Quantity">18446744073709551615</Element>
#       <Element name="experimentsleft" type="Quantity">100</Element>
#       <Element name="currentexperiment" type="Quantity">0</Element>
#       <Element name="inlinevar_1" type="Quantity">1</Element>
#     </Element>
#     <Element name="Scan" type="dict">
#       <Element name="scanParameter" type="str">DummyVar</Element>
#       <Element name="scanTarget" type="str">Internal</Element>
#       <Element name="scantype" type="int">0</Element>
#       <Element name="scanMode" type="int">0</Element>
#       <Element name="xUnit" type="str"></Element>
#       <Element name="xExpression" type="str"></Element>
#       <Element name="loadPP" type="bool">True</Element>
#       <Element name="loadPPName" type="str">Ablation_NeutralFluorescence_Rad.ppp</Element>
#       <Element name="parallelInternalScanParameter" type="str">None</Element>
#     </Element>
#     <ColumnSpec>timeTickFirst, timeTickLast, x, PMT Count, PMT Count_raw, PMT Count_bottom, PMT Count_top</ColumnSpec>
#     <Element name="comment" type="str"></Element>
#     <Element name="lastDataAquired" type="datetime">2020-09-04 19:53:15.190568+00:00</Element>
#     <Element name="name" type="str"></Element>
#     <Element name="traceCreation" type="datetime">2020-09-04 19:51:35.386627+00:00</Element>
#     <Element name="traceFinalized" type="datetime">2020-09-04 19:53:15.746500+00:00</Element>
#     <TracePlottingList>
#       <TracePlotting _bottomColumn="PMT Count_bottom" _filtColumn="None" _fitFunction="None" _heightColumn="height" _rawColumn="PMT Count_raw" _topColumn="PMT Count_top" _xColumn="x" _yColumn="PMT Count" fill="True" name="PMT Count" properties="&lt;trace.PlottedTrace.PlottedTraceProperties object at 0x000001CC99F4F240&gt;" style="0" type="0" windowName="Scan Data" xAxisLabel="DummyVar" xAxisUnit="" yAxisLabel="None">
#         <PlottedTraceProperties averageSameX="False" averageType="0" combinePoints="0"/>
#       </TracePlotting>
#     </TracePlottingList>
#   </Variables>
# </DataFileHeader>
1599249094.5866797	1599249094.5866797	29750.5	0.0	0	0	0.5
1599249095.384975	1599249095.384975	29751.502004008016	0.0	0	0	0.5
1599249095.70031	1599249095.70031	29752.504008016032	0.0	0	0	0.5
1599249095.9878554	1599249095.9878554	29753.50601202405	0.0	0	0	0.5
1599249096.198367	1599249096.198367	29754.508016032065	0.0	0	0	0.5
1599249096.5255268	1599249096.5255268	29755.51002004008	1.0	1	0.5	0.5
1599249096.838256	1599249096.838256	29756.512024048097	0.0	0	0	0.5
1599249097.161296	1599249097.161296	29757.514028056114	0.0	0	0	0.5
1599249097.4750998	1599249097.4750998	29758.51603206413	1.0	1	0.5	0.5
1599249097.799399	1599249097.799399	29759.518036072146	0.0	0	0	0.5
1599249098.1149416	1599249098.1149416	29760.52004008016	0.0	0	0	0.5
1599249098.4383092	1599249098.4383092	29761.522044088175	0.0	0	0	0.5
1599249098.7730308	1599249098.7730308	29762.52404809619	0.0	0	0	0.5
1599249099.129675	1599249099.129675	29763.526052104207	0.0	0	0	0.5
1599249099.4886632	1599249099.4886632	29764.528056112224	0.0	0	0	0.5
1599249099.826207	1599249099.826207	29765.53006012024	0.0	0	0	0.5
1599249100.1816566	1599249100.1816566	29766.532064128256	0.0	0	0	0.5
1599249100.540192	1599249100.540192	29767.534068136272	0.0	0	0	0.5
1599249100.8790433	1599249100.8790433	29768.53607214429	0.0	0	0	0.5
1599249101.238394	1599249101.238394	29769.538076152305	2.0	2	0.7071067811865476	0.7071067811865476
1599249101.585754	1599249101.585754	29770.54008016032	1.0	1	0.5	0.5
1599249101.942815	1599249101.942815	29771.542084168337	0.0	0	0	0.5
1599249102.293805	1599249102.293805	29772.544088176353	0.0	0	0	0.5
1599249102.6471493	1599249102.6471493	29773.54609218437	0.0	0	0	0.5
1599249102.9918041	1599249102.9918041	29774.548096192386	0.0	0	0	0.5
1599249103.3460138	1599249103.3460138	29775.550100200402	0.0	0	0	0.5
1599249103.6924012	1599249103.6924012	29776.55210420842	0.0	0	0	0.5
1599249104.0516949	1599249104.0516949	29777.554108216435	0.0	0	0	0.5
1599249104.3980863	1599249104.3980863	29778.556112224447	0.0	0	0	0.5
1599249104.751402	1599249104.751402	29779.558116232463	0.0	0	0	0.5
1599249105.1087925	1599249105.1087925	29780.56012024048	0.0	0	0	0.5
1599249105.463157	1599249105.463157	29781.562124248496	0.0	0	0	0.5
1599249105.832143	1599249105.832143	29782.564128256512	0.0	0	0	0.5
1599249106.2236156	1599249106.2236156	29783.56613226453	0.0	0	0	0.5
1599249106.5977817	1599249106.5977817	29784.568136272545	0.0	0	0	0.5
1599249106.9940083	1599249106.9940083	29785.57014028056	0.0	0	0	0.5
1599249107.3791168	1599249107.3791168	29786.572144288577	1.0	1	0.5	0.5
1599249107.7644196	1599249107.7644196	29787.574148296593	1.0	1	0.5	0.5
1599249108.1461837	1599249108.1461837	29788.57615230461	0.0	0	0	0.5
1599249108.5396407	1599249108.5396407	29789.578156312626	1.0	1	0.5	0.5
1599249108.9245198	1599249108.9245198	29790.580160320642	0.0	0	0	0.5
1599249109.3108027	1599249109.3108027	29791.582164328658	0.0	0	0	0.5
1599249109.6902697	1599249109.6902697	29792.584168336674	0.0	0	0	0.5
1599249110.0857422	1599249110.0857422	29793.58617234469	0.0	0	0	0.5
1599249110.4634035	1599249110.4634035	29794.588176352707	0.0	0	0	0.5
1599249110.8577092	1599249110.8577092	29795.590180360723	0.0	0	0	0.5
1599249111.2370973	1599249111.2370973	29796.59218436874	0.0	0	0	0.5
1599249111.631925	1599249111.631925	29797.594188376752	0.0	0	0	0.5
1599249112.0173023	1599249112.0173023	29798.596192384768	0.0	0	0	0.5
1599249112.40211	1599249112.40211	29799.598196392784	0.0	0	0	0.5
1599249112.7915978	1599249112.7915978	29800.6002004008	0.0	0	0	0.5
1599249113.1790879	1599249113.1790879	29801.602204408817	0.0	0	0	0.5
1599249113.5897858	1599249113.5897858	29802.604208416833	1.0	1	0.5	0.5
1599249114.0134673	1599249114.0134673	29803.60621242485	1.0	1	0.5	0.5
1599249114.4391232	1599249114.4391232	29804.608216432865	0.0	0	0	0.5
1599249114.8612988	1599249114.8612988	29805.61022044088	0.0	0	0	0.5
1599249115.2871704	1599249115.2871704	29806.612224448898	0.0	0	0	0.5
1599249115.7163756	1599249115.7163756	29807.614228456914	2.0	2	0.7071067811865476	0.7071067811865476
1599249116.1379879	1599249116.1379879	29808.61623246493	0.0	0	0	0.5
1599249116.5633774	1599249116.5633774	29809.618236472947	0.0	0	0	0.5
1599249116.9919934	1599249116.9919934	29810.620240480963	0.0	0	0	0.5
1599249117.4092476	1599249117.4092476	29811.62224448898	0.0	0	0	0.5
1599249117.8422728	1599249117.8422728	29812.624248496995	0.0	0	0	0.5
1599249118.2689276	1599249118.2689276	29813.62625250501	0.0	0	0	0.5
1599249118.6912394	1599249118.6912394	29814.628256513028	0.0	0	0	0.5
1599249119.1474736	1599249119.1474736	29815.63026052104	1.0	1	0.5	0.5
1599249119.5403166	1599249119.5403166	29816.632264529057	0.0	0	0	0.5
1599249119.9689746	1599249119.9689746	29817.634268537073	2.0	2	0.7071067811865476	0.7071067811865476
1599249120.39583	1599249120.39583	29818.63627254509	0.0	0	0	0.5
1599249120.8155215	1599249120.8155215	29819.638276553105	1.0	1	0.5	0.5
1599249121.2439697	1599249121.2439697	29820.64028056112	1.0	1	0.5	0.5
1599249121.6698236	1599249121.6698236	29821.642284569138	0.0	0	0	0.5
1599249122.1237843	1599249122.1237843	29822.644288577154	0.0	0	0	0.5
1599249122.5886533	1599249122.5886533	29823.64629258517	1.0	1	0.5	0.5
1599249123.059801	1599249123.059801	29824.648296593186	0.0	0	0	0.5
1599249123.523318	1599249123.523318	29825.650300601203	0.0	0	0	0.5
1599249123.9950871	1599249123.9950871	29826.65230460922	0.0	0	0	0.5
1599249124.4569843	1599249124.4569843	29827.654308617235	0.0	0	0	0.5
1599249124.9273221	1599249124.9273221	29828.65631262525	0.0	0	0	0.5
1599249125.3984733	1599249125.3984733	29829.658316633268	0.0	0	0	0.5
1599249125.8671277	1599249125.8671277	29830.660320641284	0.0	0	0	0.5
1599249126.330137	1599249126.330137	29831.6623246493	0.0	0	0	0.5
1599249126.7964327	1599249126.7964327	29832.664328657316	1.0	1	0.5	0.5
1599249127.2674348	1599249127.2674348	29833.666332665332	4.0	4	1.0	1.0
1599249127.7378094	1599249127.7378094	29834.668336673345	0.0	0	0	0.5
1599249128.1999836	1599249128.1999836	29835.67034068136	0.0	0	0	0.5
1599249128.6752448	1599249128.6752448	29836.672344689377	0.0	0	0	0.5
1599249129.1458962	1599249129.1458962	29837.674348697394	0.0	0	0	0.5
1599249129.6077368	1599249129.6077368	29838.67635270541	0.0	0	0	0.5
1599249130.0800166	1599249130.0800166	29839.678356713426	0.0	0	0	0.5
1599249130.541781	1599249130.541781	29840.680360721442	0.0	0	0	0.5
1599249131.0106883	1599249131.0106883	29841.68236472946	0.0	0	0	0.5
1599249131.5037062	1599249131.5037062	29842.684368737475	0.0	0	0	0.5
1599249132.0193512	1599249132.0193512	29843.68637274549	0.0	0	0	0.5
1599249132.536993	1599249132.536993	29844.688376753507	0.0	0	0	0.5
1599249133.0486362	1599249133.0486362	29845.690380761524	0.0	0	0	0.5
1599249133.5640812	1599249133.5640812	29846.69238476954	0.0	0	0	0.5
1599249134.0832589	1599249134.0832589	29847.694388777556	0.0	0	0	0.5
1599249134.5962343	1599249134.5962343	29848.696392785572	0.0	0	0	0.5
1599249135.120102	1599249135.120102	29849.69839679359	2.0	2	0.7071067811865476	0.7071067811865476
1599249135.625109	1599249135.625109	29850.700400801605	0.0	0	0	0.5
1599249136.147489	1599249136.147489	29851.70240480962	0.0	0	0	0.5
1599249136.6566339	1599249136.6566339	29852.704408817634	0.0	0	0	0.5
1599249137.1734684	1599249137.1734684	29853.70641282565	0.0	0	0	0.5
1599249137.691593	1599249137.691593	29854.708416833666	0.0	0	0	0.5
1599249138.1967988	1599249138.1967988	29855.710420841682	0.0	0	0	0.5
1599249138.7121542	1599249138.7121542	29856.7124248497	0.0	0	0	0.5
1599249139.2309713	1599249139.2309713	29857.714428857715	0.0	0	0	0.5
1599249139.7461574	1599249139.7461574	29858.71643286573	2.0	2	0.7071067811865476	0.7071067811865476
1599249140.25857	1599249140.25857	29859.718436873747	0.0	0	0	0.5
1599249140.7839546	1599249140.7839546	29860.720440881763	1.0	1	0.5	0.5
1599249141.2885952	1599249141.2885952	29861.72244488978	1.0	1	0.5	0.5
1599249141.8338845	1599249141.8338845	29862.724448897796	0.0	0	0	0.5
1599249142.3963697	1599249142.3963697	29863.726452905812	0.0	0	0	0.5
1599249142.9695888	1599249142.9695888	29864.72845691383	0.0	0	0	0.5
1599249143.5428638	1599249143.5428638	29865.730460921844	0.0	0	0	0.5
1599249144.110052	1599249144.110052	29866.73246492986	1.0	1	0.5	0.5
1599249144.6725314	1599249144.6725314	29867.734468937877	0.0	0	0	0.5
1599249145.2340195	1599249145.2340195	29868.736472945893	0.0	0	0	0.5
1599249145.8052783	1599249145.8052783	29869.73847695391	2.0	2	0.7071067811865476	0.7071067811865476
1599249146.3707623	1599249146.3707623	29870.740480961926	0.0	0	0	0.5
1599249146.941533	1599249146.941533	29871.74248496994	0.0	0	0	0.5
1599249147.5054653	1599249147.5054653	29872.744488977954	0.0	0	0	0.5
1599249148.072896	1599249148.072896	29873.74649298597	0.0	0	0	0.5
1599249148.6306217	1599249148.6306217	29874.748496993987	0.0	0	0	0.5
1599249149.207334	1599249149.207334	29875.750501002003	0.0	0	0	0.5
1599249149.7627625	1599249149.7627625	29876.75250501002	2.0	2	0.7071067811865476	0.7071067811865476
1599249150.3261507	1599249150.3261507	29877.754509018036	0.0	0	0	0.5
1599249150.9052184	1599249150.9052184	29878.756513026052	1.0	1	0.5	0.5
1599249151.477716	1599249151.477716	29879.758517034068	0.0	0	0	0.5
1599249152.0396585	1599249152.0396585	29880.760521042084	0.0	0	0	0.5
1599249152.6036296	1599249152.6036296	29881.7625250501	0.0	0	0	0.5
1599249153.2039926	1599249153.2039926	29882.764529058117	0.0	0	0	0.5
1599249153.8272512	1599249153.8272512	29883.766533066133	0.0	0	0	0.5
1599249154.4412942	1599249154.4412942	29884.76853707415	1.0	1	0.5	0.5
1599249155.068258	1599249155.068258	29885.770541082165	0.0	0	0	0.5
1599249155.6985824	1599249155.6985824	29886.77254509018	0.0	0	0	0.5
1599249156.304114	1599249156.304114	29887.774549098198	0.0	0	0	0.5
1599249156.943995	1599249156.943995	29888.776553106214	0.0	0	0	0.5
1599249157.5652733	1599249157.5652733	29889.778557114227	0.0	0	0	0.5
1599249158.1891227	1599249158.1891227	29890.780561122243	0.0	0	0	0.5
1599249158.80848	1599249158.80848	29891.78256513026	0.0	0	0	0.5
1599249159.4237874	1599249159.4237874	29892.784569138275	0.0	0	0	0.5
1599249160.0535355	1599249160.0535355	29893.78657314629	1.0	1	0.5	0.5
1599249160.6817646	1599249160.6817646	29894.788577154308	0.0	0	0	0.5
1599249161.2930834	1599249161.2930834	29895.790581162324	0.0	0	0	0.5
1599249161.923224	1599249161.923224	29896.79258517034	1.0	1	0.5	0.5
1599249162.541782	1599249162.541782	29897.794589178357	0.0	0	0	0.5
1599249163.170469	1599249163.170469	29898.796593186373	0.0	0	0	0.5
1599249163.7919314	1599249163.7919314	29899.79859719439	0.0	0	0	0.5
1599249164.4154317	1599249164.4154317	29900.800601202405	0.0	0	0	0.5
1599249165.040899	1599249165.040899	29901.80260521042	0.0	0	0	0.5
1599249165.7029033	1599249165.7029033	29902.804609218438	0.0	0	0	0.5
1599249166.3695824	1599249166.3695824	29903.806613226454	0.0	0	0	0.5
1599249167.0637522	1599249167.0637522	29904.80861723447	0.0	0	0	0.5
1599249167.7417548	1599249167.7417548	29905.810621242486	1.0	1	0.5	0.5
1599249168.4345117	1599249168.4345117	29906.812625250503	0.0	0	0	0.5
1599249169.1257064	1599249169.1257064	29907.814629258515	1.0	1	0.5	0.5
1599249169.7989516	1599249169.7989516	29908.81663326653	0.0	0	0	0.5
1599249170.4876192	1599249170.4876192	29909.818637274548	0.0	0	0	0.5
1599249171.1771007	1599249171.1771007	29910.820641282564	1.0	1	0.5	0.5
1599249171.8567472	1599249171.8567472	29911.82264529058	0.0	0	0	0.5
1599249172.550061	1599249172.550061	29912.824649298596	1.0	1	0.5	0.5
1599249173.2337658	1599249173.2337658	29913.826653306613	0.0	0	0	0.5
1599249173.9189873	1599249173.9189873	29914.82865731463	1.0	1	0.5	0.5
1599249174.5936708	1599249174.5936708	29915.830661322645	0.0	0	0	0.5
1599249175.2901242	1599249175.2901242	29916.83266533066	0.0	0	0	0.5
1599249175.9794207	1599249175.9794207	29917.834669338677	1.0	1	0.5	0.5
1599249176.6546414	1599249176.6546414	29918.836673346694	0.0	0	0	0.5
1599249177.3406405	1599249177.3406405	29919.83867735471	0.0	0	0	0.5
1599249178.0293212	1599249178.0293212	29920.840681362726	0.0	0	0	0.5
1599249178.7095895	1599249178.7095895	29921.842685370742	0.0	0	0	0.5
1599249179.439014	1599249179.439014	29922.84468937876	0.0	0	0	0.5
1599249180.1729348	1599249180.1729348	29923.846693386775	0.0	0	0	0.5
1599249180.9233284	1599249180.9233284	29924.84869739479	0.0	0	0	0.5
1599249181.6744778	1599249181.6744778	29925.850701402807	1.0	1	0.5	0.5
1599249182.43543	1599249182.43543	29926.85270541082	1.0	1	0.5	0.5
1599249183.1867948	1599249183.1867948	29927.854709418836	0.0	0	0	0.5
1599249183.9345143	1599249183.9345143	29928.856713426852	1.0	1	0.5	0.5
1599249184.6773252	1599249184.6773252	29929.85871743487	0.0	0	0	0.5
1599249185.4385564	1599249185.4385564	29930.860721442885	1.0	1	0.5	0.5
1599249186.1824892	1599249186.1824892	29931.8627254509	0.0	0	0	0.5
1599249186.9352236	1599249186.9352236	29932.864729458917	2.0	2	0.7071067811865476	0.7071067811865476
1599249187.6804588	1599249187.6804588	29933.866733466934	0.0	0	0	0.5
1599249188.435114	1599249188.435114	29934.86873747495	0.0	0	0	0.5
1599249189.1774037	1599249189.1774037	29935.870741482966	0.0	0	0	0.5
1599249189.9406981	1599249189.9406981	29936.872745490982	0.0	0	0	0.5
1599249190.7196581	1599249190.7196581	29937.874749499	1.0	1	0.5	0.5
1599249191.424439	1599249191.424439	29938.876753507015	0.0	0	0	0.5
1599249192.187568	1599249192.187568	29939.87875751503	0.0	0	0	0.5
1599249192.931587	1599249192.931587	29940.880761523047	1.0	1	0.5	0.5
1599249193.6778011	1599249193.6778011	29941.882765531063	0.0	0	0	0.5
1599249194.427706	1599249194.427706	29942.88476953908	1.0	1	0.5	0.5