# <?xml version="1.0" ?>
# <DataFileHeader>
#   <Variables>
#     <Element name="PulseProgram" type="dict">
#       <Element name="PulseProgram" type="str">C:/Users/ions/Documents/IonControl/project_dir/QuditLab/config/PulseProgramsPlus/Ablation_NeutralFluorescence.ppp</Element>
#       <Element name="NULL" type="Quantity">0</Element>
#       <Element name="FFFFFFFF" type="Quantity">18446744073709551615</Element>
#       <Element name="INTERRUPT_EXITCODE" type="Quantity">18446198715942174720</Element>
#       <Element name="InitializationShutter" type="int">5154</Element>
#       <Element name="NaturalAblation_mask" type="int">256</Element>
#       <Element name="NaturalAblation" type="int">256</Element>
#       <Element name="EndShutter" type="int">5154</Element>
#       <Element name="ShutterDelayTime" type="Quantity">0.5 s</Element>
#       <Element name="WindowStartTime" type="Quantity">145 us</Element>
#       <Element name="DetectTime" type="Quantity">20 us</Element>
#       <Element name="DummyVar" type="int">0</Element>
#       <Element name="experiments" type="int">1</Element>
#       <Element name="DetectCounters" type="int">1</Element>
#       <Element name="endLabel" type="Quantity">18446744073709551615</Element>
#       <Element name="experimentsleft" type="Quantity">100</Element>
#       <Element name="currentexperiment" type="Quantity">0</Element>
#       <Element name="inlinevar_1" type="Quantity">1</Element>
#     </Element>
#     <Element name="Scan" type="dict">
#       <Element name="scanParameter" type="str">DummyVar</Element>
#       <Element name="scanTarget" type="str">Internal</Element>
#       <Element name="scantype" type="int">0</Element>
#       <Element name="scanMode" type="int">0</Element>
#       <Element name="xUnit" type="str"></Element>
#       <Element name="xExpression" type="str"></Element>
#       <Element name="loadPP" type="bool">True</Element>
#       <Element name="loadPPName" type="str">Ablation_NeutralFluorescence_Rad.ppp</Element>
#       <Element name="parallelInternalScanParameter" type="str">None</Element>
#     </Element>
#     <ColumnSpec>timeTickFirst, timeTickLast, x, PMT Count, PMT Count_raw, PMT Count_bottom, PMT Count_top</ColumnSpec>
#     <Element name="comment" type="str"></Element>
#     <Element name="lastDataAquired" type="datetime">2020-09-04 20:03:09.671777+00:00</Element>
#     <Element name="name" type="str"></Element>
#     <Element name="traceCreation" type="datetime">2020-09-04 20:01:24.760134+00:00</Element>
#     <Element name="traceFinalized" type="datetime">2020-09-04 20:03:09.941168+00:00</Element>
#     <TracePlottingList>
#       <TracePlotting _bottomColumn="PMT Count_bottom" _filtColumn="None" _fitFunction="None" _heightColumn="height" _rawColumn="PMT Count_raw" _topColumn="PMT Count_top" _xColumn="x" _yColumn="PMT Count" fill="True" name="PMT Count" properties="&lt;trace.PlottedTrace.PlottedTraceProperties object at 0x000002A9849B9B38&gt;" style="0" type="0" windowName="Scan Data" xAxisLabel="DummyVar" xAxisUnit="" yAxisLabel="None">
#         <PlottedTraceProperties averageSameX="False" averageType="0" combinePoints="0"/>
#       </TracePlotting>
#     </TracePlottingList>
#   </Variables>
# </DataFileHeader>
1599249683.0680332	1599249683.0680332	29750.5	4.0	4	1.0	1.0
1599249684.756827	1599249684.756827	29751.502004008016	7.0	7	1.3228756555322954	1.3228756555322954
1599249685.5957294	1599249685.5957294	29752.504008016032	5.0	5	1.118033988749895	1.118033988749895
1599249685.9950776	1599249685.9950776	29753.50601202405	1.0	1	0.5	0.5
1599249686.7418294	1599249686.7418294	29754.508016032065	9.0	9	1.5	1.5
1599249687.4943895	1599249687.4943895	29755.51002004008	4.0	4	1.0	1.0
1599249688.2417088	1599249688.2417088	29756.512024048097	5.0	5	1.118033988749895	1.118033988749895
1599249688.978572	1599249688.978572	29757.514028056114	3.0	3	0.8660254037844386	0.8660254037844386
1599249689.733172	1599249689.733172	29758.51603206413	5.0	5	1.118033988749895	1.118033988749895
1599249690.4886513	1599249690.4886513	29759.518036072146	3.0	3	0.8660254037844386	0.8660254037844386
1599249691.2306938	1599249691.2306938	29760.52004008016	7.0	7	1.3228756555322954	1.3228756555322954
1599249691.9955497	1599249691.9955497	29761.522044088175	2.0	2	0.7071067811865476	0.7071067811865476
1599249692.7481356	1599249692.7481356	29762.52404809619	4.0	4	1.0	1.0
1599249693.4919105	1599249693.4919105	29763.526052104207	2.0	2	0.7071067811865476	0.7071067811865476
1599249694.2330954	1599249694.2330954	29764.528056112224	5.0	5	1.118033988749895	1.118033988749895
1599249694.9804244	1599249694.9804244	29765.53006012024	2.0	2	0.7071067811865476	0.7071067811865476
1599249695.7306821	1599249695.7306821	29766.532064128256	5.0	5	1.118033988749895	1.118033988749895
1599249696.4973788	1599249696.4973788	29767.534068136272	3.0	3	0.8660254037844386	0.8660254037844386
1599249697.2396255	1599249697.2396255	29768.53607214429	5.0	5	1.118033988749895	1.118033988749895
1599249697.9757664	1599249697.9757664	29769.538076152305	3.0	3	0.8660254037844386	0.8660254037844386
1599249698.729171	1599249698.729171	29770.54008016032	5.0	5	1.118033988749895	1.118033988749895
1599249699.475748	1599249699.475748	29771.542084168337	2.0	2	0.7071067811865476	0.7071067811865476
1599249700.2195976	1599249700.2195976	29772.544088176353	4.0	4	1.0	1.0
1599249700.9215295	1599249700.9215295	29773.54609218437	3.0	3	0.8660254037844386	0.8660254037844386
1599249701.5836942	1599249701.5836942	29774.548096192386	5.0	5	1.118033988749895	1.118033988749895
1599249702.264766	1599249702.264766	29775.550100200402	3.0	3	0.8660254037844386	0.8660254037844386
1599249702.9242783	1599249702.9242783	29776.55210420842	4.0	4	1.0	1.0
1599249703.621738	1599249703.621738	29777.554108216435	3.0	3	0.8660254037844386	0.8660254037844386
1599249704.2875462	1599249704.2875462	29778.556112224447	1.0	1	0.5	0.5
1599249704.967038	1599249704.967038	29779.558116232463	4.0	4	1.0	1.0
1599249705.6380217	1599249705.6380217	29780.56012024048	1.0	1	0.5	0.5
1599249706.319846	1599249706.319846	29781.562124248496	3.0	3	0.8660254037844386	0.8660254037844386
1599249706.9866707	1599249706.9866707	29782.564128256512	8.0	8	1.4142135623730951	1.4142135623730951
1599249707.654609	1599249707.654609	29783.56613226453	3.0	3	0.8660254037844386	0.8660254037844386
1599249708.3322937	1599249708.3322937	29784.568136272545	4.0	4	1.0	1.0
1599249709.004783	1599249709.004783	29785.57014028056	5.0	5	1.118033988749895	1.118033988749895
1599249709.6782734	1599249709.6782734	29786.572144288577	3.0	3	0.8660254037844386	0.8660254037844386
1599249710.3660846	1599249710.3660846	29787.574148296593	6.0	6	1.224744871391589	1.224744871391589
1599249711.031623	1599249711.031623	29788.57615230461	8.0	8	1.4142135623730951	1.4142135623730951
1599249711.7103674	1599249711.7103674	29789.578156312626	1.0	1	0.5	0.5
1599249712.3743515	1599249712.3743515	29790.580160320642	5.0	5	1.118033988749895	1.118033988749895
1599249713.0687163	1599249713.0687163	29791.582164328658	8.0	8	1.4142135623730951	1.4142135623730951
1599249713.7322981	1599249713.7322981	29792.584168336674	1.0	1	0.5	0.5
1599249714.3432105	1599249714.3432105	29793.58617234469	3.0	3	0.8660254037844386	0.8660254037844386
1599249714.9423592	1599249714.9423592	29794.588176352707	6.0	6	1.224744871391589	1.224744871391589
1599249715.543285	1599249715.543285	29795.590180360723	7.0	7	1.3228756555322954	1.3228756555322954
1599249716.163483	1599249716.163483	29796.59218436874	8.0	8	1.4142135623730951	1.4142135623730951
1599249716.779151	1599249716.779151	29797.594188376752	12.0	12	1.7320508075688772	1.7320508075688772
1599249717.3796341	1599249717.3796341	29798.596192384768	5.0	5	1.118033988749895	1.118033988749895
1599249718.1913168	1599249718.1913168	29799.598196392784	7.0	7	1.3228756555322954	1.3228756555322954
1599249718.5804837	1599249718.5804837	29800.6002004008	4.0	4	1.0	1.0
1599249719.201719	1599249719.201719	29801.602204408817	6.0	6	1.224744871391589	1.224744871391589
1599249719.800886	1599249719.800886	29802.604208416833	7.0	7	1.3228756555322954	1.3228756555322954
1599249720.4209166	1599249720.4209166	29803.60621242485	5.0	5	1.118033988749895	1.118033988749895
1599249721.0136564	1599249721.0136564	29804.608216432865	3.0	3	0.8660254037844386	0.8660254037844386
1599249721.6311326	1599249721.6311326	29805.61022044088	7.0	7	1.3228756555322954	1.3228756555322954
1599249722.2393234	1599249722.2393234	29806.612224448898	8.0	8	1.4142135623730951	1.4142135623730951
1599249722.8476474	1599249722.8476474	29807.614228456914	4.0	4	1.0	1.0
1599249723.4555182	1599249723.4555182	29808.61623246493	4.0	4	1.0	1.0
1599249724.05815	1599249724.05815	29809.618236472947	5.0	5	1.118033988749895	1.118033988749895
1599249724.6673512	1599249724.6673512	29810.620240480963	4.0	4	1.0	1.0
1599249725.27162	1599249725.27162	29811.62224448898	9.0	9	1.5	1.5
1599249725.8790917	1599249725.8790917	29812.624248496995	7.0	7	1.3228756555322954	1.3228756555322954
1599249726.424328	1599249726.424328	29813.62625250501	11.0	11	1.6583123951777	1.6583123951777
1599249726.9701946	1599249726.9701946	29814.628256513028	7.0	7	1.3228756555322954	1.3228756555322954
1599249727.518891	1599249727.518891	29815.63026052104	7.0	7	1.3228756555322954	1.3228756555322954
1599249728.06114	1599249728.06114	29816.632264529057	10.0	10	1.5811388300841898	1.5811388300841898
1599249728.6135557	1599249728.6135557	29817.634268537073	4.0	4	1.0	1.0
1599249729.1593337	1599249729.1593337	29818.63627254509	2.0	2	0.7071067811865476	0.7071067811865476
1599249729.6953564	1599249729.6953564	29819.638276553105	8.0	8	1.4142135623730951	1.4142135623730951
1599249730.2520144	1599249730.2520144	29820.64028056112	2.0	2	0.7071067811865476	0.7071067811865476
1599249730.7963066	1599249730.7963066	29821.642284569138	9.0	9	1.5	1.5
1599249731.3417284	1599249731.3417284	29822.644288577154	6.0	6	1.224744871391589	1.224744871391589
1599249731.9075015	1599249731.9075015	29823.64629258517	7.0	7	1.3228756555322954	1.3228756555322954
1599249732.4337783	1599249732.4337783	29824.648296593186	5.0	5	1.118033988749895	1.118033988749895
1599249732.9834611	1599249732.9834611	29825.650300601203	6.0	6	1.224744871391589	1.224744871391589
1599249733.5307393	1599249733.5307393	29826.65230460922	7.0	7	1.3228756555322954	1.3228756555322954
1599249734.0696576	1599249734.0696576	29827.654308617235	10.0	10	1.5811388300841898	1.5811388300841898
1599249734.6173658	1599249734.6173658	29828.65631262525	7.0	7	1.3228756555322954	1.3228756555322954
1599249735.1660416	1599249735.1660416	29829.658316633268	12.0	12	1.7320508075688772	1.7320508075688772
1599249735.7783506	1599249735.7783506	29830.660320641284	9.0	9	1.5	1.5
1599249736.2567317	1599249736.2567317	29831.6623246493	7.0	7	1.3228756555322954	1.3228756555322954
1599249736.8006728	1599249736.8006728	29832.664328657316	10.0	10	1.5811388300841898	1.5811388300841898
1599249737.299946	1599249737.299946	29833.666332665332	10.0	10	1.5811388300841898	1.5811388300841898
1599249737.7926807	1599249737.7926807	29834.668336673345	7.0	7	1.3228756555322954	1.3228756555322954
1599249738.2766595	1599249738.2766595	29835.67034068136	5.0	5	1.118033988749895	1.118033988749895
1599249738.7753916	1599249738.7753916	29836.672344689377	11.0	11	1.6583123951777	1.6583123951777
1599249739.2749522	1599249739.2749522	29837.674348697394	19.0	19	2.179449471770337	2.179449471770337
1599249739.7600667	1599249739.7600667	29838.67635270541	13.0	13	1.8027756377319946	1.8027756377319946
1599249740.2437818	1599249740.2437818	29839.678356713426	16.0	16	2.0	2.0
1599249740.7400389	1599249740.7400389	29840.680360721442	9.0	9	1.5	1.5
1599249741.2282724	1599249741.2282724	29841.68236472946	11.0	11	1.6583123951777	1.6583123951777
1599249741.721853	1599249741.721853	29842.684368737475	10.0	10	1.5811388300841898	1.5811388300841898
1599249742.2143116	1599249742.2143116	29843.68637274549	12.0	12	1.7320508075688772	1.7320508075688772
1599249742.715461	1599249742.715461	29844.688376753507	11.0	11	1.6583123951777	1.6583123951777
1599249743.1979926	1599249743.1979926	29845.690380761524	10.0	10	1.5811388300841898	1.5811388300841898
1599249743.7000563	1599249743.7000563	29846.69238476954	13.0	13	1.8027756377319946	1.8027756377319946
1599249744.2010944	1599249744.2010944	29847.694388777556	9.0	9	1.5	1.5
1599249744.6870966	1599249744.6870966	29848.696392785572	9.0	9	1.5	1.5
1599249745.166756	1599249745.166756	29849.69839679359	9.0	9	1.5	1.5
1599249745.6607018	1599249745.6607018	29850.700400801605	16.0	16	2.0	2.0
1599249746.165397	1599249746.165397	29851.70240480962	7.0	7	1.3228756555322954	1.3228756555322954
1599249746.640218	1599249746.640218	29852.704408817634	16.0	16	2.0	2.0
1599249747.0923495	1599249747.0923495	29853.70641282565	11.0	11	1.6583123951777	1.6583123951777
1599249747.5232656	1599249747.5232656	29854.708416833666	13.0	13	1.8027756377319946	1.8027756377319946
1599249747.981251	1599249747.981251	29855.710420841682	12.0	12	1.7320508075688772	1.7320508075688772
1599249748.4110544	1599249748.4110544	29856.7124248497	15.0	15	1.9364916731037085	1.9364916731037085
1599249748.8707542	1599249748.8707542	29857.714428857715	7.0	7	1.3228756555322954	1.3228756555322954
1599249749.3033772	1599249749.3033772	29858.71643286573	11.0	11	1.6583123951777	1.6583123951777
1599249749.7471893	1599249749.7471893	29859.718436873747	20.0	20	2.23606797749979	2.23606797749979
1599249750.183762	1599249750.183762	29860.720440881763	10.0	10	1.5811388300841898	1.5811388300841898
1599249750.6317713	1599249750.6317713	29861.72244488978	12.0	12	1.7320508075688772	1.7320508075688772
1599249751.070803	1599249751.070803	29862.724448897796	23.0	23	2.3979157616563596	2.3979157616563596
1599249751.5152357	1599249751.5152357	29863.726452905812	13.0	13	1.8027756377319946	1.8027756377319946
1599249751.954923	1599249751.954923	29864.72845691383	16.0	16	2.0	2.0
1599249752.4083242	1599249752.4083242	29865.730460921844	25.0	25	2.5	2.5
1599249752.8408008	1599249752.8408008	29866.73246492986	19.0	19	2.179449471770337	2.179449471770337
1599249753.2880304	1599249753.2880304	29867.734468937877	21.0	21	2.29128784747792	2.29128784747792
1599249753.7396138	1599249753.7396138	29868.736472945893	25.0	25	2.5	2.5
1599249754.1793764	1599249754.1793764	29869.73847695391	24.0	24	2.449489742783178	2.449489742783178
1599249754.61317	1599249754.61317	29870.740480961926	9.0	9	1.5	1.5
1599249755.0609891	1599249755.0609891	29871.74248496994	19.0	19	2.179449471770337	2.179449471770337
1599249755.4969585	1599249755.4969585	29872.744488977954	11.0	11	1.6583123951777	1.6583123951777
1599249755.896659	1599249755.896659	29873.74649298597	9.0	9	1.5	1.5
1599249756.2939236	1599249756.2939236	29874.748496993987	15.0	15	1.9364916731037085	1.9364916731037085
1599249756.6929638	1599249756.6929638	29875.750501002003	11.0	11	1.6583123951777	1.6583123951777
1599249757.0908225	1599249757.0908225	29876.75250501002	5.0	5	1.118033988749895	1.118033988749895
1599249757.4879735	1599249757.4879735	29877.754509018036	5.0	5	1.118033988749895	1.118033988749895
1599249757.8895078	1599249757.8895078	29878.756513026052	10.0	10	1.5811388300841898	1.5811388300841898
1599249758.2884085	1599249758.2884085	29879.758517034068	11.0	11	1.6583123951777	1.6583123951777
1599249758.6844018	1599249758.6844018	29880.760521042084	8.0	8	1.4142135623730951	1.4142135623730951
1599249759.0871854	1599249759.0871854	29881.7625250501	4.0	4	1.0	1.0
1599249759.4904926	1599249759.4904926	29882.764529058117	9.0	9	1.5	1.5
1599249759.889117	1599249759.889117	29883.766533066133	11.0	11	1.6583123951777	1.6583123951777
1599249760.2810519	1599249760.2810519	29884.76853707415	12.0	12	1.7320508075688772	1.7320508075688772
1599249760.6823761	1599249760.6823761	29885.770541082165	7.0	7	1.3228756555322954	1.3228756555322954
1599249761.08083	1599249761.08083	29886.77254509018	5.0	5	1.118033988749895	1.118033988749895
1599249761.4836328	1599249761.4836328	29887.774549098198	3.0	3	0.8660254037844386	0.8660254037844386
1599249761.8749988	1599249761.8749988	29888.776553106214	6.0	6	1.224744871391589	1.224744871391589
1599249762.2847862	1599249762.2847862	29889.778557114227	9.0	9	1.5	1.5
1599249762.6777701	1599249762.6777701	29890.780561122243	10.0	10	1.5811388300841898	1.5811388300841898
1599249763.0762024	1599249763.0762024	29891.78256513026	16.0	16	2.0	2.0
1599249763.467018	1599249763.467018	29892.784569138275	7.0	7	1.3228756555322954	1.3228756555322954
1599249763.8271127	1599249763.8271127	29893.78657314629	11.0	11	1.6583123951777	1.6583123951777
1599249764.1888282	1599249764.1888282	29894.788577154308	15.0	15	1.9364916731037085	1.9364916731037085
1599249764.5395703	1599249764.5395703	29895.790581162324	9.0	9	1.5	1.5
1599249764.9060612	1599249764.9060612	29896.79258517034	9.0	9	1.5	1.5
1599249765.2678547	1599249765.2678547	29897.794589178357	14.0	14	1.8708286933869707	1.8708286933869707
1599249765.6226182	1599249765.6226182	29898.796593186373	22.0	22	2.345207879911715	2.345207879911715
1599249765.9830537	1599249765.9830537	29899.79859719439	20.0	20	2.23606797749979	2.23606797749979
1599249766.3424149	1599249766.3424149	29900.800601202405	18.0	18	2.1213203435596424	2.1213203435596424
1599249766.698472	1599249766.698472	29901.80260521042	11.0	11	1.6583123951777	1.6583123951777
1599249767.058955	1599249767.058955	29902.804609218438	16.0	16	2.0	2.0
1599249767.4191625	1599249767.4191625	29903.806613226454	14.0	14	1.8708286933869707	1.8708286933869707
1599249767.7711852	1599249767.7711852	29904.80861723447	8.0	8	1.4142135623730951	1.4142135623730951
1599249768.1321795	1599249768.1321795	29905.810621242486	11.0	11	1.6583123951777	1.6583123951777
1599249768.491561	1599249768.491561	29906.812625250503	10.0	10	1.5811388300841898	1.5811388300841898
1599249768.8567533	1599249768.8567533	29907.814629258515	6.0	6	1.224744871391589	1.224744871391589
1599249769.2058954	1599249769.2058954	29908.81663326653	8.0	8	1.4142135623730951	1.4142135623730951
1599249769.5742624	1599249769.5742624	29909.818637274548	6.0	6	1.224744871391589	1.224744871391589
1599249769.928007	1599249769.928007	29910.820641282564	7.0	7	1.3228756555322954	1.3228756555322954
1599249770.2915707	1599249770.2915707	29911.82264529058	7.0	7	1.3228756555322954	1.3228756555322954
1599249770.6384587	1599249770.6384587	29912.824649298596	10.0	10	1.5811388300841898	1.5811388300841898
1599249770.974159	1599249770.974159	29913.826653306613	9.0	9	1.5	1.5
1599249771.2948048	1599249771.2948048	29914.82865731463	10.0	10	1.5811388300841898	1.5811388300841898
1599249771.6122396	1599249771.6122396	29915.830661322645	17.0	17	2.0615528128088303	2.0615528128088303
1599249771.92692	1599249771.92692	29916.83266533066	21.0	21	2.29128784747792	2.29128784747792
1599249772.2702136	1599249772.2702136	29917.834669338677	16.0	16	2.0	2.0
1599249772.5782294	1599249772.5782294	29918.836673346694	32.0	32	2.8284271247461903	2.8284271247461903
1599249772.9004807	1599249772.9004807	29919.83867735471	10.0	10	1.5811388300841898	1.5811388300841898
1599249773.226887	1599249773.226887	29920.840681362726	6.0	6	1.224744871391589	1.224744871391589
1599249773.551426	1599249773.551426	29921.842685370742	10.0	10	1.5811388300841898	1.5811388300841898
1599249773.8703344	1599249773.8703344	29922.84468937876	20.0	20	2.23606797749979	2.23606797749979
1599249774.1961467	1599249774.1961467	29923.846693386775	16.0	16	2.0	2.0
1599249774.5133867	1599249774.5133867	29924.84869739479	18.0	18	2.1213203435596424	2.1213203435596424
1599249774.854577	1599249774.854577	29925.850701402807	21.0	21	2.29128784747792	2.29128784747792
1599249775.1707199	1599249775.1707199	29926.85270541082	11.0	11	1.6583123951777	1.6583123951777
1599249775.4984818	1599249775.4984818	29927.854709418836	9.0	9	1.5	1.5
1599249775.815607	1599249775.815607	29928.856713426852	13.0	13	1.8027756377319946	1.8027756377319946
1599249776.1458967	1599249776.1458967	29929.85871743487	23.0	23	2.3979157616563596	2.3979157616563596
1599249776.4654412	1599249776.4654412	29930.860721442885	21.0	21	2.29128784747792	2.29128784747792
1599249776.7755337	1599249776.7755337	29931.8627254509	19.0	19	2.179449471770337	2.179449471770337
1599249777.0904417	1599249777.0904417	29932.864729458917	33.0	33	2.8722813232690143	2.8722813232690143
1599249777.4222581	1599249777.4222581	29933.866733466934	41.0	41	3.2015621187164243	3.2015621187164243
1599249777.6750371	1599249777.6750371	29934.86873747495	23.0	23	2.3979157616563596	2.3979157616563596
1599249777.9651973	1599249777.9651973	29935.870741482966	29.0	29	2.692582403567252	2.692582403567252
1599249778.2562826	1599249778.2562826	29936.872745490982	28.0	28	2.6457513110645907	2.6457513110645907
1599249778.5470793	1599249778.5470793	29937.874749499	28.0	28	2.6457513110645907	2.6457513110645907
1599249778.8428986	1599249778.8428986	29938.876753507015	26.0	26	2.5495097567963922	2.5495097567963922
1599249779.126496	1599249779.126496	29939.87875751503	28.0	28	2.6457513110645907	2.6457513110645907
1599249779.426826	1599249779.426826	29940.880761523047	23.0	23	2.3979157616563596	2.3979157616563596
1599249779.7105472	1599249779.7105472	29941.882765531063	23.0	23	2.3979157616563596	2.3979157616563596
1599249779.9961367	1599249779.9961367	29942.88476953908	27.0	27	2.598076211353316	2.598076211353316
1599249780.2915084	1599249780.2915084	29943.886773547096	24.0	24	2.449489742783178	2.449489742783178
1599249780.57931	1599249780.57931	29944.888777555112	42.0	42	3.24037034920393	3.24037034920393
1599249780.8711808	1599249780.8711808	29945.890781563125	55.0	55	3.7080992435478315	3.7080992435478315
1599249781.162194	1599249781.162194	29946.89278557114	32.0	32	2.8284271247461903	2.8284271247461903
1599249781.4639497	1599249781.4639497	29947.894789579157	28.0	28	2.6457513110645907	2.6457513110645907
1599249781.7504196	1599249781.7504196	29948.896793587173	25.0	25	2.5	2.5
1599249782.0395095	1599249782.0395095	29949.89879759519	35.0	35	2.958039891549808	2.958039891549808
1599249782.3486602	1599249782.3486602	29950.900801603206	28.0	28	2.6457513110645907	2.6457513110645907
1599249782.6159914	1599249782.6159914	29951.902805611222	29.0	29	2.692582403567252	2.692582403567252
1599249782.9192832	1599249782.9192832	29952.90480961924	13.0	13	1.8027756377319946	1.8027756377319946
1599249783.2298114	1599249783.2298114	29953.906813627254	11.0	11	1.6583123951777	1.6583123951777
1599249783.547136	1599249783.547136	29954.90881763527	12.0	12	1.7320508075688772	1.7320508075688772
1599249783.8810146	1599249783.8810146	29955.910821643287	9.0	9	1.5	1.5
1599249784.1968944	1599249784.1968944	29956.912825651303	8.0	8	1.4142135623730951	1.4142135623730951
1599249784.516652	1599249784.516652	29957.91482965932	4.0	4	1.0	1.0
1599249784.8261693	1599249784.8261693	29958.916833667336	2.0	2	0.7071067811865476	0.7071067811865476
1599249785.164444	1599249785.164444	29959.918837675352	7.0	7	1.3228756555322954	1.3228756555322954
1599249785.4776857	1599249785.4776857	29960.920841683368	11.0	11	1.6583123951777	1.6583123951777
1599249785.7999845	1599249785.7999845	29961.922845691384	5.0	5	1.118033988749895	1.118033988749895
1599249786.1044652	1599249786.1044652	29962.9248496994	10.0	10	1.5811388300841898	1.5811388300841898
1599249786.4390707	1599249786.4390707	29963.926853707413	11.0	11	1.6583123951777	1.6583123951777
1599249786.7569368	1599249786.7569368	29964.92885771543	4.0	4	1.0	1.0
1599249787.0741765	1599249787.0741765	29965.930861723446	15.0	15	1.9364916731037085	1.9364916731037085
1599249787.3833842	1599249787.3833842	29966.93286573146	15.0	15	1.9364916731037085	1.9364916731037085
1599249787.7042513	1599249787.7042513	29967.934869739478	16.0	16	2.0	2.0
1599249788.0348594	1599249788.0348594	29968.936873747494	32.0	32	2.8284271247461903	2.8284271247461903
1599249788.352546	1599249788.352546	29969.93887775551	5.0	5	1.118033988749895	1.118033988749895
1599249788.6759784	1599249788.6759784	29970.940881763527	9.0	9	1.5	1.5
1599249788.9917653	1599249788.9917653	29971.942885771543	12.0	12	1.7320508075688772	1.7320508075688772
1599249789.388102	1599249789.388102	29972.94488977956	10.0	10	1.5811388300841898	1.5811388300841898