# <?xml version="1.0" ?>
# <DataFileHeader>
#   <Variables>
#     <Element name="PulseProgram" type="dict">
#       <Element name="PulseProgram" type="str">C:/Users/ions/Documents/IonControl/project_dir/QuditLab/config/PulseProgramsPlus/Ablation_NeutralFluorescence.ppp</Element>
#       <Element name="NULL" type="Quantity">0</Element>
#       <Element name="FFFFFFFF" type="Quantity">18446744073709551615</Element>
#       <Element name="INTERRUPT_EXITCODE" type="Quantity">18446198715942174720</Element>
#       <Element name="InitializationShutter" type="int">4610</Element>
#       <Element name="NaturalAblation_mask" type="int">0</Element>
#       <Element name="NaturalAblation" type="int">0</Element>
#       <Element name="EndShutter" type="int">4610</Element>
#       <Element name="ShutterDelayTime" type="Quantity">0.5 s</Element>
#       <Element name="WindowStartTime" type="Quantity">145 us</Element>
#       <Element name="DetectTime" type="Quantity">20 us</Element>
#       <Element name="DummyVar" type="int">0</Element>
#       <Element name="experiments" type="int">1</Element>
#       <Element name="DetectCounters" type="int">1</Element>
#       <Element name="endLabel" type="Quantity">18446744073709551615</Element>
#       <Element name="experimentsleft" type="Quantity">100</Element>
#       <Element name="currentexperiment" type="Quantity">0</Element>
#       <Element name="inlinevar_1" type="Quantity">1</Element>
#     </Element>
#     <Element name="Scan" type="dict">
#       <Element name="scanParameter" type="str">DummyVar</Element>
#       <Element name="scanTarget" type="str">Internal</Element>
#       <Element name="scantype" type="int">0</Element>
#       <Element name="scanMode" type="int">0</Element>
#       <Element name="xUnit" type="str"></Element>
#       <Element name="xExpression" type="str"></Element>
#       <Element name="loadPP" type="bool">True</Element>
#       <Element name="loadPPName" type="str">Ablation_NeutralFluorescence_Nat.ppp</Element>
#       <Element name="parallelInternalScanParameter" type="str">None</Element>
#     </Element>
#     <ColumnSpec>timeTickFirst, timeTickLast, x, PMT Count, PMT Count_raw, PMT Count_bottom, PMT Count_top</ColumnSpec>
#     <Element name="comment" type="str"></Element>
#     <Element name="lastDataAquired" type="datetime">2020-09-04 18:10:22.680453+00:00</Element>
#     <Element name="name" type="str"></Element>
#     <Element name="traceCreation" type="datetime">2020-09-04 18:08:23.776529+00:00</Element>
#     <Element name="traceFinalized" type="datetime">2020-09-04 18:10:22.684742+00:00</Element>
#     <TracePlottingList>
#       <TracePlotting _bottomColumn="PMT Count_bottom" _filtColumn="None" _fitFunction="None" _heightColumn="height" _rawColumn="PMT Count_raw" _topColumn="PMT Count_top" _xColumn="x" _yColumn="PMT Count" fill="True" name="PMT Count" properties="&lt;trace.PlottedTrace.PlottedTraceProperties object at 0x000001B5A2A0BA90&gt;" style="0" type="0" windowName="Scan Data" xAxisLabel="DummyVar" xAxisUnit="" yAxisLabel="None">
#         <PlottedTraceProperties averageSameX="False" averageType="0" combinePoints="0"/>
#       </TracePlotting>
#     </TracePlottingList>
#   </Variables>
# </DataFileHeader>
1599242902.625201	1599242902.625201	1.0	0.0	0	0	0.5
1599242903.7746284	1599242903.7746284	1.0376569037656904	1.0	1	0.5	0.5
1599242906.4563043	1599242906.4563043	1.0753138075313808	0.0	0	0	0.5
1599242906.4563043	1599242906.4563043	1.112970711297071	0.0	0	0	0.5
1599242906.4563043	1599242906.4563043	1.1506276150627615	0.0	0	0	0.5
1599242906.5498748	1599242906.5498748	1.1882845188284519	0.0	0	0	0.5
1599242907.1604981	1599242907.1604981	1.2259414225941423	2.0	2	0.7071067811865476	0.7071067811865476
1599242907.1615868	1599242907.1615868	1.2635983263598327	0.0	0	0	0.5
1599242907.1615868	1599242907.1615868	1.301255230125523	1.0	1	0.5	0.5
1599242907.7884207	1599242907.7884207	1.3389121338912133	0.0	0	0	0.5
1599242907.8487186	1599242907.8487186	1.3765690376569037	0.0	0	0	0.5
1599242908.3302293	1599242908.3302293	1.4142259414225942	0.0	0	0	0.5
1599242908.5519009	1599242908.5519009	1.4518828451882846	0.0	0	0	0.5
1599242909.1503284	1599242909.1503284	1.489539748953975	0.0	0	0	0.5
1599242909.547242	1599242909.547242	1.5271966527196654	0.0	0	0	0.5
1599242910.1422248	1599242910.1422248	1.5648535564853556	0.0	0	0	0.5
1599242910.5577362	1599242910.5577362	1.602510460251046	0.0	0	0	0.5
1599242911.3036995	1599242911.3036995	1.6401673640167365	1.0	1	0.5	0.5
1599242911.6266453	1599242911.6266453	1.6778242677824267	0.0	0	0	0.5
1599242912.2301934	1599242912.2301934	1.715481171548117	0.0	0	0	0.5
1599242912.5531993	1599242912.5531993	1.7531380753138075	0.0	0	0	0.5
1599242913.1806061	1599242913.1806061	1.790794979079498	0.0	0	0	0.5
1599242913.5771928	1599242913.5771928	1.8284518828451883	1.0	1	0.5	0.5
1599242914.2138724	1599242914.2138724	1.8661087866108788	0.0	0	0	0.5
1599242914.6063645	1599242914.6063645	1.9037656903765692	0.0	0	0	0.5
1599242915.262186	1599242915.262186	1.9414225941422596	0.0	0	0	0.5
1599242915.6780624	1599242915.6780624	1.9790794979079498	0.0	0	0	0.5
1599242916.0555482	1599242916.0555482	2.01673640167364	0.0	0	0	0.5
1599242916.554422	1599242916.554422	2.054393305439331	0.0	0	0	0.5
1599242917.2530074	1599242917.2530074	2.092050209205021	0.0	0	0	0.5
1599242917.5500922	1599242917.5500922	2.1297071129707112	0.0	0	0	0.5
1599242918.160155	1599242918.160155	2.1673640167364017	0.0	0	0	0.5
1599242918.5748608	1599242918.5748608	2.205020920502092	0.0	0	0	0.5
1599242919.1398065	1599242919.1398065	2.2426778242677825	1.0	1	0.5	0.5
1599242919.556011	1599242919.556011	2.280334728033473	1.0	1	0.5	0.5
1599242920.1357718	1599242920.1357718	2.3179916317991633	0.0	0	0	0.5
1599242920.5532684	1599242920.5532684	2.3556485355648533	0.0	0	0	0.5
1599242921.060502	1599242921.060502	2.393305439330544	0.0	0	0	0.5
1599242921.5581422	1599242921.5581422	2.430962343096234	0.0	0	0	0.5
1599242922.1914036	1599242922.1914036	2.468619246861925	1.0	1	0.5	0.5
1599242922.5942774	1599242922.5942774	2.506276150627615	0.0	0	0	0.5
1599242923.2558498	1599242923.2558498	2.5439330543933054	1.0	1	0.5	0.5
1599242923.651364	1599242923.651364	2.581589958158996	0.0	0	0	0.5
1599242924.2725227	1599242924.2725227	2.6192468619246863	0.0	0	0	0.5
1599242924.5569565	1599242924.5569565	2.6569037656903767	0.0	0	0	0.5
1599242925.2492769	1599242925.2492769	2.694560669456067	0.0	0	0	0.5
1599242925.5532167	1599242925.5532167	2.7322175732217575	0.0	0	0	0.5
1599242926.1541548	1599242926.1541548	2.7698744769874475	0.0	0	0	0.5
1599242926.5549977	1599242926.5549977	2.8075313807531384	0.0	0	0	0.5
1599242927.1692069	1599242927.1692069	2.8451882845188283	0.0	0	0	0.5
1599242927.587824	1599242927.587824	2.882845188284519	0.0	0	0	0.5
1599242928.2064052	1599242928.2064052	2.920502092050209	0.0	0	0	0.5
1599242928.664444	1599242928.664444	2.9581589958158996	1.0	1	0.5	0.5
1599242929.3450277	1599242929.3450277	2.99581589958159	1.0	1	0.5	0.5
1599242929.897133	1599242929.897133	3.0334728033472804	0.0	0	0	0.5
1599242930.4285038	1599242930.4285038	3.071129707112971	0.0	0	0	0.5
1599242930.8788545	1599242930.8788545	3.1087866108786613	0.0	0	0	0.5
1599242931.5912044	1599242931.5912044	3.1464435146443517	0.0	0	0	0.5
1599242932.023266	1599242932.023266	3.184100418410042	0.0	0	0	0.5
1599242932.7328339	1599242932.7328339	3.221757322175732	0.0	0	0	0.5
1599242933.174749	1599242933.174749	3.2594142259414225	0.0	0	0	0.5
1599242933.8336105	1599242933.8336105	3.297071129707113	0.0	0	0	0.5
1599242934.1846545	1599242934.1846545	3.3347280334728033	0.0	0	0	0.5
1599242934.808789	1599242934.808789	3.3723849372384938	0.0	0	0	0.5
1599242935.2887094	1599242935.2887094	3.410041841004184	0.0	0	0	0.5
1599242935.9038448	1599242935.9038448	3.4476987447698746	0.0	0	0	0.5
1599242936.3873508	1599242936.3873508	3.485355648535565	1.0	1	0.5	0.5
1599242937.0435236	1599242937.0435236	3.5230125523012554	0.0	0	0	0.5
1599242937.489175	1599242937.489175	3.560669456066946	0.0	0	0	0.5
1599242938.1043923	1599242938.1043923	3.5983263598326363	0.0	0	0	0.5
1599242938.5546067	1599242938.5546067	3.6359832635983262	0.0	0	0	0.5
1599242939.1478112	1599242939.1478112	3.6736401673640167	1.0	1	0.5	0.5
1599242939.5706394	1599242939.5706394	3.711297071129707	0.0	0	0	0.5
1599242940.1705966	1599242940.1705966	3.7489539748953975	0.0	0	0	0.5
1599242940.6044261	1599242940.6044261	3.786610878661088	0.0	0	0	0.5
1599242941.2247012	1599242941.2247012	3.8242677824267783	0.0	0	0	0.5
1599242941.6181262	1599242941.6181262	3.8619246861924688	0.0	0	0	0.5
1599242942.2124474	1599242942.2124474	3.899581589958159	0.0	0	0	0.5
1599242943.0806468	1599242943.0806468	3.9372384937238496	0.0	0	0	0.5
1599242943.643139	1599242943.643139	3.97489539748954	0.0	0	0	0.5
1599242944.3129904	1599242944.3129904	4.01255230125523	0.0	0	0	0.5
1599242944.3618972	1599242944.3618972	4.05020920502092	0.0	0	0	0.5
1599242944.514908	1599242944.514908	4.087866108786611	1.0	1	0.5	0.5
1599242945.0874722	1599242945.0874722	4.125523012552302	0.0	0	0	0.5
1599242945.5042095	1599242945.5042095	4.163179916317992	1.0	1	0.5	0.5
1599242946.0120819	1599242946.0120819	4.200836820083682	0.0	0	0	0.5
1599242946.4769788	1599242946.4769788	4.2384937238493725	0.0	0	0	0.5
1599242947.0578618	1599242947.0578618	4.276150627615063	1.0	1	0.5	0.5
1599242947.4854047	1599242947.4854047	4.313807531380753	0.0	0	0	0.5
1599242948.0836263	1599242948.0836263	4.351464435146443	0.0	0	0	0.5
1599242948.4726212	1599242948.4726212	4.389121338912134	0.0	0	0	0.5
1599242949.0250258	1599242949.0250258	4.426778242677824	0.0	0	0	0.5
1599242949.39435	1599242949.39435	4.464435146443515	0.0	0	0	0.5
1599242949.9664323	1599242949.9664323	4.502092050209205	0.0	0	0	0.5
1599242950.350195	1599242950.350195	4.539748953974895	0.0	0	0	0.5
1599242950.8576062	1599242950.8576062	4.577405857740586	0.0	0	0	0.5
1599242951.1510625	1599242951.1510625	4.615062761506277	1.0	1	0.5	0.5
1599242951.6569443	1599242951.6569443	4.652719665271967	0.0	0	0	0.5
1599242952.0387666	1599242952.0387666	4.690376569037657	0.0	0	0	0.5
1599242952.5565593	1599242952.5565593	4.7280334728033475	0.0	0	0	0.5
1599242952.9107494	1599242952.9107494	4.765690376569038	1.0	1	0.5	0.5
1599242953.4571793	1599242953.4571793	4.803347280334728	0.0	0	0	0.5
1599242953.821745	1599242953.821745	4.841004184100418	0.0	0	0	0.5
1599242954.3227456	1599242954.3227456	4.878661087866108	0.0	0	0	0.5
1599242954.6934009	1599242954.6934009	4.916317991631799	0.0	0	0	0.5
1599242955.2656054	1599242955.2656054	4.95397489539749	1.0	1	0.5	0.5
1599242955.6082501	1599242955.6082501	4.99163179916318	0.0	0	0	0.5
1599242956.129858	1599242956.129858	5.02928870292887	0.0	0	0	0.5
1599242956.4886951	1599242956.4886951	5.066945606694561	0.0	0	0	0.5
1599242957.085877	1599242957.085877	5.104602510460251	0.0	0	0	0.5
1599242957.4422266	1599242957.4422266	5.142259414225942	1.0	1	0.5	0.5
1599242958.048828	1599242958.048828	5.179916317991632	1.0	1	0.5	0.5
1599242958.3608096	1599242958.3608096	5.2175732217573225	0.0	0	0	0.5
1599242958.8526287	1599242958.8526287	5.2552301255230125	0.0	0	0	0.5
1599242959.3462474	1599242959.3462474	5.292887029288703	1.0	1	0.5	0.5
1599242959.913631	1599242959.913631	5.330543933054393	0.0	0	0	0.5
1599242960.3262413	1599242960.3262413	5.368200836820084	0.0	0	0	0.5
1599242960.9284828	1599242960.9284828	5.405857740585774	0.0	0	0	0.5
1599242961.3070579	1599242961.3070579	5.443514644351464	0.0	0	0	0.5
1599242961.8681357	1599242961.8681357	5.481171548117155	0.0	0	0	0.5
1599242962.2805033	1599242962.2805033	5.518828451882845	0.0	0	0	0.5
1599242962.9518151	1599242962.9518151	5.556485355648536	0.0	0	0	0.5
1599242963.3049703	1599242963.3049703	5.594142259414226	0.0	0	0	0.5
1599242963.8197815	1599242963.8197815	5.631799163179917	0.0	0	0	0.5
1599242964.2513773	1599242964.2513773	5.669456066945607	0.0	0	0	0.5
1599242964.851291	1599242964.851291	5.7071129707112975	0.0	0	0	0.5
1599242965.2625213	1599242965.2625213	5.7447698744769875	0.0	0	0	0.5
1599242965.8713574	1599242965.8713574	5.782426778242678	0.0	0	0	0.5
1599242966.308046	1599242966.308046	5.820083682008368	0.0	0	0	0.5
1599242966.863316	1599242966.863316	5.857740585774058	1.0	1	0.5	0.5
1599242967.17611	1599242967.17611	5.895397489539749	2.0	2	0.7071067811865476	0.7071067811865476
1599242967.7042356	1599242967.7042356	5.933054393305439	0.0	0	0	0.5
1599242968.2522068	1599242968.2522068	5.97071129707113	0.0	0	0	0.5
1599242968.8963282	1599242968.8963282	6.00836820083682	0.0	0	0	0.5
1599242969.317605	1599242969.317605	6.046025104602511	0.0	0	0	0.5
1599242969.9222772	1599242969.9222772	6.083682008368201	0.0	0	0	0.5
1599242970.4090962	1599242970.4090962	6.121338912133892	0.0	0	0	0.5
1599242971.0312195	1599242971.0312195	6.158995815899582	0.0	0	0	0.5
1599242971.4866133	1599242971.4866133	6.1966527196652725	0.0	0	0	0.5
1599242972.0227005	1599242972.0227005	6.2343096234309625	0.0	0	0	0.5
1599242973.2712202	1599242973.2712202	6.2719665271966525	0.0	0	0	0.5
1599242973.2724504	1599242973.2724504	6.309623430962343	0.0	0	0	0.5
1599242973.648817	1599242973.648817	6.347280334728033	1.0	1	0.5	0.5
1599242974.3743625	1599242974.3743625	6.384937238493724	0.0	0	0	0.5
1599242974.7909381	1599242974.7909381	6.422594142259414	2.0	2	0.7071067811865476	0.7071067811865476
1599242975.4624271	1599242975.4624271	6.460251046025105	0.0	0	0	0.5
1599242975.7910092	1599242975.7910092	6.497907949790795	0.0	0	0	0.5
1599242976.5159354	1599242976.5159354	6.535564853556486	0.0	0	0	0.5
1599242976.8738952	1599242976.8738952	6.573221757322176	0.0	0	0	0.5
1599242977.4808345	1599242977.4808345	6.610878661087867	0.0	0	0	0.5
1599242977.9455075	1599242977.9455075	6.648535564853557	0.0	0	0	0.5
1599242978.6250043	1599242978.6250043	6.686192468619247	0.0	0	0	0.5
1599242979.1196272	1599242979.1196272	6.7238493723849375	0.0	0	0	0.5
1599242979.7841716	1599242979.7841716	6.7615062761506275	0.0	0	0	0.5
1599242980.3005493	1599242980.3005493	6.799163179916318	0.0	0	0	0.5
1599242981.0262709	1599242981.0262709	6.836820083682008	1.0	1	0.5	0.5
1599242981.4885182	1599242981.4885182	6.874476987447699	0.0	0	0	0.5
1599242982.2336366	1599242982.2336366	6.912133891213389	0.0	0	0	0.5
1599242982.6752656	1599242982.6752656	6.94979079497908	1.0	1	0.5	0.5
1599242983.5565631	1599242983.5565631	6.98744769874477	0.0	0	0	0.5
1599242983.9266043	1599242983.9266043	7.02510460251046	0.0	0	0	0.5
1599242984.6791852	1599242984.6791852	7.062761506276151	0.0	0	0	0.5
1599242985.1751995	1599242985.1751995	7.100418410041841	1.0	1	0.5	0.5
1599242985.8527188	1599242985.8527188	7.138075313807532	1.0	1	0.5	0.5
1599242986.235748	1599242986.235748	7.175732217573222	0.0	0	0	0.5
1599242986.899285	1599242986.899285	7.2133891213389125	0.0	0	0	0.5
1599242987.428803	1599242987.428803	7.2510460251046025	0.0	0	0	0.5
1599242988.1073847	1599242988.1073847	7.288702928870293	0.0	0	0	0.5
1599242988.60462	1599242988.60462	7.326359832635983	0.0	0	0	0.5
1599242989.287215	1599242989.287215	7.364016736401674	1.0	1	0.5	0.5
1599242989.7933795	1599242989.7933795	7.401673640167364	0.0	0	0	0.5
1599242990.4051259	1599242990.4051259	7.439330543933054	1.0	1	0.5	0.5
1599242990.8762712	1599242990.8762712	7.476987447698745	2.0	2	0.7071067811865476	0.7071067811865476
1599242991.4924877	1599242991.4924877	7.514644351464435	0.0	0	0	0.5
1599242991.942741	1599242991.942741	7.552301255230126	0.0	0	0	0.5
1599242992.5965421	1599242992.5965421	7.589958158995816	0.0	0	0	0.5
1599242993.0202608	1599242993.0202608	7.627615062761507	0.0	0	0	0.5
1599242993.7317717	1599242993.7317717	7.665271966527197	0.0	0	0	0.5
1599242994.2062528	1599242994.2062528	7.7029288702928875	0.0	0	0	0.5
1599242994.8029819	1599242994.8029819	7.7405857740585775	0.0	0	0	0.5
1599242995.1476336	1599242995.1476336	7.778242677824268	0.0	0	0	0.5
1599242995.8713956	1599242995.8713956	7.815899581589958	0.0	0	0	0.5
1599242996.2189956	1599242996.2189956	7.853556485355648	0.0	0	0	0.5
1599242996.8072145	1599242996.8072145	7.891213389121339	2.0	2	0.7071067811865476	0.7071067811865476
1599242997.285385	1599242997.285385	7.928870292887029	0.0	0	0	0.5
1599242997.8932056	1599242997.8932056	7.96652719665272	0.0	0	0	0.5
1599242998.3503134	1599242998.3503134	8.00418410041841	0.0	0	0	0.5
1599242998.9480119	1599242998.9480119	8.0418410041841	1.0	1	0.5	0.5
1599242999.419158	1599242999.419158	8.07949790794979	1.0	1	0.5	0.5
1599243000.0126858	1599243000.0126858	8.117154811715482	0.0	0	0	0.5
1599243000.5388732	1599243000.5388732	8.154811715481172	0.0	0	0	0.5
1599243001.0954208	1599243001.0954208	8.192468619246863	0.0	0	0	0.5
1599243001.5146558	1599243001.5146558	8.230125523012553	0.0	0	0	0.5
1599243002.1384106	1599243002.1384106	8.267782426778243	0.0	0	0	0.5
1599243002.540703	1599243002.540703	8.305439330543933	0.0	0	0	0.5
1599243003.063623	1599243003.063623	8.343096234309623	0.0	0	0	0.5
1599243003.490538	1599243003.490538	8.380753138075313	0.0	0	0	0.5
1599243004.0292659	1599243004.0292659	8.418410041841003	0.0	0	0	0.5
1599243004.3394735	1599243004.3394735	8.456066945606695	0.0	0	0	0.5
1599243004.8842766	1599243004.8842766	8.493723849372385	0.0	0	0	0.5
1599243005.3013449	1599243005.3013449	8.531380753138077	0.0	0	0	0.5
1599243006.5889187	1599243006.5889187	8.569037656903767	0.0	0	0	0.5
1599243007.2211022	1599243007.2211022	8.606694560669457	0.0	0	0	0.5
1599243007.2673504	1599243007.2673504	8.644351464435147	1.0	1	0.5	0.5
1599243007.2673504	1599243007.2673504	8.682008368200837	0.0	0	0	0.5
1599243007.7838454	1599243007.7838454	8.719665271966527	0.0	0	0	0.5
1599243008.1844225	1599243008.1844225	8.757322175732217	0.0	0	0	0.5
1599243008.7393513	1599243008.7393513	8.794979079497908	0.0	0	0	0.5
1599243009.1635907	1599243009.1635907	8.832635983263598	1.0	1	0.5	0.5
1599243009.7281168	1599243009.7281168	8.87029288702929	0.0	0	0	0.5
1599243010.1166935	1599243010.1166935	8.90794979079498	0.0	0	0	0.5
1599243010.7015283	1599243010.7015283	8.94560669456067	1.0	1	0.5	0.5
1599243011.1570518	1599243011.1570518	8.98326359832636	0.0	0	0	0.5
1599243011.568303	1599243011.568303	9.02092050209205	0.0	0	0	0.5
1599243011.8534498	1599243011.8534498	9.05857740585774	0.0	0	0	0.5
1599243012.4340293	1599243012.4340293	9.096234309623432	0.0	0	0	0.5
1599243012.7128663	1599243012.7128663	9.133891213389122	0.0	0	0	0.5
1599243013.2171257	1599243013.2171257	9.171548117154812	1.0	1	0.5	0.5
1599243013.5786905	1599243013.5786905	9.209205020920502	0.0	0	0	0.5
1599243014.068225	1599243014.068225	9.246861924686193	0.0	0	0	0.5
1599243014.445113	1599243014.445113	9.284518828451883	0.0	0	0	0.5
1599243014.9408967	1599243014.9408967	9.322175732217573	0.0	0	0	0.5
1599243015.3067071	1599243015.3067071	9.359832635983263	0.0	0	0	0.5
1599243015.8341515	1599243015.8341515	9.397489539748955	1.0	1	0.5	0.5
1599243016.1784458	1599243016.1784458	9.435146443514645	0.0	0	0	0.5
1599243016.7054482	1599243016.7054482	9.472803347280335	0.0	0	0	0.5
1599243017.05212	1599243017.05212	9.510460251046025	0.0	0	0	0.5
1599243017.5879312	1599243017.5879312	9.548117154811715	0.0	0	0	0.5
1599243017.955209	1599243017.955209	9.585774058577407	0.0	0	0	0.5
1599243018.5102627	1599243018.5102627	9.623430962343097	0.0	0	0	0.5
1599243018.8665257	1599243018.8665257	9.661087866108787	0.0	0	0	0.5
1599243019.3041694	1599243019.3041694	9.698744769874477	0.0	0	0	0.5
1599243019.565539	1599243019.565539	9.736401673640168	0.0	0	0	0.5
1599243019.958348	1599243019.958348	9.774058577405858	0.0	0	0	0.5
1599243020.3421836	1599243020.3421836	9.811715481171548	0.0	0	0	0.5
1599243020.7812831	1599243020.7812831	9.849372384937238	0.0	0	0	0.5
1599243021.1137183	1599243021.1137183	9.887029288702928	0.0	0	0	0.5
1599243021.5650265	1599243021.5650265	9.92468619246862	0.0	0	0	0.5
1599243021.8920753	1599243021.8920753	9.96234309623431	0.0	0	0	0.5
1599243022.3353984	1599243022.3353984	10.0	1.0	1	0.5	0.5