# <?xml version="1.0" ?>
# <DataFileHeader>
#   <Variables>
#     <Element name="PulseProgram" type="dict">
#       <Element name="PulseProgram" type="str">C:/Users/ions/Documents/IonControl/project_dir/QuditLab/config/PulseProgramsPlus/Ablation_NeutralFluorescence.ppp</Element>
#       <Element name="NULL" type="Quantity">0</Element>
#       <Element name="FFFFFFFF" type="Quantity">18446744073709551615</Element>
#       <Element name="INTERRUPT_EXITCODE" type="Quantity">18446198715942174720</Element>
#       <Element name="InitializationShutter" type="int">4610</Element>
#       <Element name="NaturalAblation_mask" type="int">256</Element>
#       <Element name="NaturalAblation" type="int">256</Element>
#       <Element name="EndShutter" type="int">4610</Element>
#       <Element name="ShutterDelayTime" type="Quantity">0.5 s</Element>
#       <Element name="WindowStartTime" type="Quantity">145 us</Element>
#       <Element name="DetectTime" type="Quantity">20 us</Element>
#       <Element name="DummyVar" type="int">0</Element>
#       <Element name="experiments" type="int">1</Element>
#       <Element name="DetectCounters" type="int">1</Element>
#       <Element name="endLabel" type="Quantity">18446744073709551615</Element>
#       <Element name="experimentsleft" type="Quantity">100</Element>
#       <Element name="currentexperiment" type="Quantity">0</Element>
#       <Element name="inlinevar_1" type="Quantity">1</Element>
#     </Element>
#     <Element name="Scan" type="dict">
#       <Element name="scanParameter" type="str">DummyVar</Element>
#       <Element name="scanTarget" type="str">Internal</Element>
#       <Element name="scantype" type="int">0</Element>
#       <Element name="scanMode" type="int">0</Element>
#       <Element name="xUnit" type="str"></Element>
#       <Element name="xExpression" type="str"></Element>
#       <Element name="loadPP" type="bool">True</Element>
#       <Element name="loadPPName" type="str">Ablation_NeutralFluorescence_Nat.ppp</Element>
#       <Element name="parallelInternalScanParameter" type="str">None</Element>
#     </Element>
#     <ColumnSpec>timeTickFirst, timeTickLast, x, PMT Count, PMT Count_raw, PMT Count_bottom, PMT Count_top</ColumnSpec>
#     <Element name="comment" type="str"></Element>
#     <Element name="lastDataAquired" type="datetime">2020-09-09 19:12:07.464369+00:00</Element>
#     <Element name="name" type="str"></Element>
#     <Element name="traceCreation" type="datetime">2020-09-09 19:10:08.541073+00:00</Element>
#     <Element name="traceFinalized" type="datetime">2020-09-09 19:12:07.470418+00:00</Element>
#     <TracePlottingList>
#       <TracePlotting _bottomColumn="PMT Count_bottom" _filtColumn="None" _fitFunction="None" _heightColumn="height" _rawColumn="PMT Count_raw" _topColumn="PMT Count_top" _xColumn="x" _yColumn="PMT Count" fill="True" name="PMT Count" properties="&lt;trace.PlottedTrace.PlottedTraceProperties object at 0x000002A9854C5F60&gt;" style="0" type="0" windowName="Scan Data" xAxisLabel="DummyVar" xAxisUnit="" yAxisLabel="None">
#         <PlottedTraceProperties averageSameX="False" averageType="0" combinePoints="0"/>
#       </TracePlotting>
#     </TracePlottingList>
#   </Variables>
# </DataFileHeader>
1599678607.517651	1599678607.517651	1.0	2.0	2	0.7071067811865476	0.7071067811865476
1599678608.5386484	1599678608.5386484	1.0376569037656904	2.0	2	0.7071067811865476	0.7071067811865476
1599678609.0632427	1599678609.0632427	1.0753138075313808	0.0	0	0	0.5
1599678609.5422285	1599678609.5422285	1.112970711297071	0.0	0	0	0.5
1599678610.0309114	1599678610.0309114	1.1506276150627615	0.0	0	0	0.5
1599678610.545783	1599678610.545783	1.1882845188284519	1.0	1	0.5	0.5
1599678611.0341434	1599678611.0341434	1.2259414225941423	1.0	1	0.5	0.5
1599678611.5380416	1599678611.5380416	1.2635983263598327	1.0	1	0.5	0.5
1599678612.0399714	1599678612.0399714	1.301255230125523	0.0	0	0	0.5
1599678612.543159	1599678612.543159	1.3389121338912133	0.0	0	0	0.5
1599678613.0387642	1599678613.0387642	1.3765690376569037	1.0	1	0.5	0.5
1599678613.532313	1599678613.532313	1.4142259414225942	0.0	0	0	0.5
1599678614.0447598	1599678614.0447598	1.4518828451882846	2.0	2	0.7071067811865476	0.7071067811865476
1599678614.5420918	1599678614.5420918	1.489539748953975	0.0	0	0	0.5
1599678615.0369537	1599678615.0369537	1.5271966527196654	1.0	1	0.5	0.5
1599678615.5497801	1599678615.5497801	1.5648535564853556	1.0	1	0.5	0.5
1599678616.0364034	1599678616.0364034	1.602510460251046	1.0	1	0.5	0.5
1599678616.5589356	1599678616.5589356	1.6401673640167365	1.0	1	0.5	0.5
1599678617.0465739	1599678617.0465739	1.6778242677824267	0.0	0	0	0.5
1599678617.5433757	1599678617.5433757	1.715481171548117	0.0	0	0	0.5
1599678618.0437183	1599678618.0437183	1.7531380753138075	0.0	0	0	0.5
1599678618.5550532	1599678618.5550532	1.790794979079498	0.0	0	0	0.5
1599678619.035768	1599678619.035768	1.8284518828451883	0.0	0	0	0.5
1599678619.5577128	1599678619.5577128	1.8661087866108788	0.0	0	0	0.5
1599678620.0385144	1599678620.0385144	1.9037656903765692	0.0	0	0	0.5
1599678620.5472767	1599678620.5472767	1.9414225941422596	2.0	2	0.7071067811865476	0.7071067811865476
1599678621.0453918	1599678621.0453918	1.9790794979079498	0.0	0	0	0.5
1599678621.5689638	1599678621.5689638	2.01673640167364	0.0	0	0	0.5
1599678622.0491498	1599678622.0491498	2.054393305439331	2.0	2	0.7071067811865476	0.7071067811865476
1599678622.5583954	1599678622.5583954	2.092050209205021	2.0	2	0.7071067811865476	0.7071067811865476
1599678623.0368521	1599678623.0368521	2.1297071129707112	1.0	1	0.5	0.5
1599678623.5557	1599678623.5557	2.1673640167364017	0.0	0	0	0.5
1599678624.0359907	1599678624.0359907	2.205020920502092	0.0	0	0	0.5
1599678624.558739	1599678624.558739	2.2426778242677825	0.0	0	0	0.5
1599678625.03915	1599678625.03915	2.280334728033473	1.0	1	0.5	0.5
1599678625.550608	1599678625.550608	2.3179916317991633	0.0	0	0	0.5
1599678626.046058	1599678626.046058	2.3556485355648533	1.0	1	0.5	0.5
1599678626.5448508	1599678626.5448508	2.393305439330544	0.0	0	0	0.5
1599678627.0371816	1599678627.0371816	2.430962343096234	1.0	1	0.5	0.5
1599678627.5537655	1599678627.5537655	2.468619246861925	1.0	1	0.5	0.5
1599678628.0485585	1599678628.0485585	2.506276150627615	0.0	0	0	0.5
1599678628.560808	1599678628.560808	2.5439330543933054	1.0	1	0.5	0.5
1599678629.0599132	1599678629.0599132	2.581589958158996	2.0	2	0.7071067811865476	0.7071067811865476
1599678629.5509102	1599678629.5509102	2.6192468619246863	1.0	1	0.5	0.5
1599678630.041996	1599678630.041996	2.6569037656903767	3.0	3	0.8660254037844386	0.8660254037844386
1599678630.5466373	1599678630.5466373	2.694560669456067	0.0	0	0	0.5
1599678631.0568523	1599678631.0568523	2.7322175732217575	2.0	2	0.7071067811865476	0.7071067811865476
1599678631.5513985	1599678631.5513985	2.7698744769874475	2.0	2	0.7071067811865476	0.7071067811865476
1599678632.048128	1599678632.048128	2.8075313807531384	0.0	0	0	0.5
1599678632.5521502	1599678632.5521502	2.8451882845188283	4.0	4	1.0	1.0
1599678633.0506794	1599678633.0506794	2.882845188284519	1.0	1	0.5	0.5
1599678633.555536	1599678633.555536	2.920502092050209	2.0	2	0.7071067811865476	0.7071067811865476
1599678634.0429842	1599678634.0429842	2.9581589958158996	0.0	0	0	0.5
1599678634.5581615	1599678634.5581615	2.99581589958159	1.0	1	0.5	0.5
1599678635.0414963	1599678635.0414963	3.0334728033472804	2.0	2	0.7071067811865476	0.7071067811865476
1599678635.5483794	1599678635.5483794	3.071129707112971	1.0	1	0.5	0.5
1599678636.0492017	1599678636.0492017	3.1087866108786613	0.0	0	0	0.5
1599678636.5533218	1599678636.5533218	3.1464435146443517	1.0	1	0.5	0.5
1599678637.0388148	1599678637.0388148	3.184100418410042	0.0	0	0	0.5
1599678637.5656803	1599678637.5656803	3.221757322175732	0.0	0	0	0.5
1599678638.0525386	1599678638.0525386	3.2594142259414225	0.0	0	0	0.5
1599678638.5549247	1599678638.5549247	3.297071129707113	0.0	0	0	0.5
1599678639.053055	1599678639.053055	3.3347280334728033	0.0	0	0	0.5
1599678639.539881	1599678639.539881	3.3723849372384938	1.0	1	0.5	0.5
1599678640.0420263	1599678640.0420263	3.410041841004184	1.0	1	0.5	0.5
1599678640.5633893	1599678640.5633893	3.4476987447698746	0.0	0	0	0.5
1599678641.0410001	1599678641.0410001	3.485355648535565	0.0	0	0	0.5
1599678641.550979	1599678641.550979	3.5230125523012554	0.0	0	0	0.5
1599678642.047306	1599678642.047306	3.560669456066946	1.0	1	0.5	0.5
1599678642.5488117	1599678642.5488117	3.5983263598326363	0.0	0	0	0.5
1599678643.044763	1599678643.044763	3.6359832635983262	0.0	0	0	0.5
1599678643.8082695	1599678643.8082695	3.6736401673640167	0.0	0	0	0.5
1599678644.0501325	1599678644.0501325	3.711297071129707	2.0	2	0.7071067811865476	0.7071067811865476
1599678644.5562284	1599678644.5562284	3.7489539748953975	0.0	0	0	0.5
1599678645.0442317	1599678645.0442317	3.786610878661088	0.0	0	0	0.5
1599678645.549667	1599678645.549667	3.8242677824267783	0.0	0	0	0.5
1599678646.0513852	1599678646.0513852	3.8619246861924688	1.0	1	0.5	0.5
1599678646.560231	1599678646.560231	3.899581589958159	0.0	0	0	0.5
1599678647.0523305	1599678647.0523305	3.9372384937238496	0.0	0	0	0.5
1599678647.55506	1599678647.55506	3.97489539748954	0.0	0	0	0.5
1599678648.0542848	1599678648.0542848	4.01255230125523	0.0	0	0	0.5
1599678648.5525427	1599678648.5525427	4.05020920502092	1.0	1	0.5	0.5
1599678649.0459764	1599678649.0459764	4.087866108786611	1.0	1	0.5	0.5
1599678649.5485666	1599678649.5485666	4.125523012552302	0.0	0	0	0.5
1599678650.0581474	1599678650.0581474	4.163179916317992	1.0	1	0.5	0.5
1599678650.5571241	1599678650.5571241	4.200836820083682	0.0	0	0	0.5
1599678651.0564344	1599678651.0564344	4.2384937238493725	1.0	1	0.5	0.5
1599678651.5549529	1599678651.5549529	4.276150627615063	2.0	2	0.7071067811865476	0.7071067811865476
1599678652.0530112	1599678652.0530112	4.313807531380753	0.0	0	0	0.5
1599678652.5532715	1599678652.5532715	4.351464435146443	4.0	4	1.0	1.0
1599678653.048735	1599678653.048735	4.389121338912134	1.0	1	0.5	0.5
1599678653.557883	1599678653.557883	4.426778242677824	0.0	0	0	0.5
1599678654.045963	1599678654.045963	4.464435146443515	0.0	0	0	0.5
1599678654.5850508	1599678654.5850508	4.502092050209205	0.0	0	0	0.5
1599678655.048082	1599678655.048082	4.539748953974895	0.0	0	0	0.5
1599678655.5496688	1599678655.5496688	4.577405857740586	0.0	0	0	0.5
1599678656.0459776	1599678656.0459776	4.615062761506277	2.0	2	0.7071067811865476	0.7071067811865476
1599678656.5617805	1599678656.5617805	4.652719665271967	0.0	0	0	0.5
1599678657.056306	1599678657.056306	4.690376569037657	0.0	0	0	0.5
1599678657.5571082	1599678657.5571082	4.7280334728033475	1.0	1	0.5	0.5
1599678658.055102	1599678658.055102	4.765690376569038	0.0	0	0	0.5
1599678658.56973	1599678658.56973	4.803347280334728	0.0	0	0	0.5
1599678659.049224	1599678659.049224	4.841004184100418	1.0	1	0.5	0.5
1599678659.5540683	1599678659.5540683	4.878661087866108	0.0	0	0	0.5
1599678660.0892632	1599678660.0892632	4.916317991631799	1.0	1	0.5	0.5
1599678660.5545669	1599678660.5545669	4.95397489539749	0.0	0	0	0.5
1599678661.0595875	1599678661.0595875	4.99163179916318	0.0	0	0	0.5
1599678661.5596251	1599678661.5596251	5.02928870292887	0.0	0	0	0.5
1599678662.0497582	1599678662.0497582	5.066945606694561	0.0	0	0	0.5
1599678662.5472798	1599678662.5472798	5.104602510460251	1.0	1	0.5	0.5
1599678663.0629294	1599678663.0629294	5.142259414225942	0.0	0	0	0.5
1599678663.560411	1599678663.560411	5.179916317991632	0.0	0	0	0.5
1599678664.060731	1599678664.060731	5.2175732217573225	0.0	0	0	0.5
1599678664.561503	1599678664.561503	5.2552301255230125	0.0	0	0	0.5
1599678665.0595126	1599678665.0595126	5.292887029288703	0.0	0	0	0.5
1599678665.670595	1599678665.670595	5.330543933054393	0.0	0	0	0.5
1599678666.0506456	1599678666.0506456	5.368200836820084	0.0	0	0	0.5
1599678666.561013	1599678666.561013	5.405857740585774	0.0	0	0	0.5
1599678667.0492928	1599678667.0492928	5.443514644351464	0.0	0	0	0.5
1599678667.5572846	1599678667.5572846	5.481171548117155	0.0	0	0	0.5
1599678668.0527961	1599678668.0527961	5.518828451882845	0.0	0	0	0.5
1599678668.5595431	1599678668.5595431	5.556485355648536	0.0	0	0	0.5
1599678669.0678203	1599678669.0678203	5.594142259414226	0.0	0	0	0.5
1599678669.5647683	1599678669.5647683	5.631799163179917	0.0	0	0	0.5
1599678670.0699873	1599678670.0699873	5.669456066945607	0.0	0	0	0.5
1599678670.5561514	1599678670.5561514	5.7071129707112975	0.0	0	0	0.5
1599678671.0485034	1599678671.0485034	5.7447698744769875	0.0	0	0	0.5
1599678671.566483	1599678671.566483	5.782426778242678	0.0	0	0	0.5
1599678672.0616727	1599678672.0616727	5.820083682008368	0.0	0	0	0.5
1599678672.5528271	1599678672.5528271	5.857740585774058	2.0	2	0.7071067811865476	0.7071067811865476
1599678673.0564306	1599678673.0564306	5.895397489539749	1.0	1	0.5	0.5
1599678673.5669835	1599678673.5669835	5.933054393305439	2.0	2	0.7071067811865476	0.7071067811865476
1599678674.062638	1599678674.062638	5.97071129707113	0.0	0	0	0.5
1599678674.5588548	1599678674.5588548	6.00836820083682	0.0	0	0	0.5
1599678675.0644383	1599678675.0644383	6.046025104602511	1.0	1	0.5	0.5
1599678675.5573194	1599678675.5573194	6.083682008368201	2.0	2	0.7071067811865476	0.7071067811865476
1599678676.0565877	1599678676.0565877	6.121338912133892	0.0	0	0	0.5
1599678676.5690129	1599678676.5690129	6.158995815899582	1.0	1	0.5	0.5
1599678677.0620658	1599678677.0620658	6.1966527196652725	1.0	1	0.5	0.5
1599678677.5763626	1599678677.5763626	6.2343096234309625	0.0	0	0	0.5
1599678678.057171	1599678678.057171	6.2719665271966525	0.0	0	0	0.5
1599678678.5711217	1599678678.5711217	6.309623430962343	0.0	0	0	0.5
1599678679.0520778	1599678679.0520778	6.347280334728033	2.0	2	0.7071067811865476	0.7071067811865476
1599678679.557085	1599678679.557085	6.384937238493724	1.0	1	0.5	0.5
1599678680.0620754	1599678680.0620754	6.422594142259414	0.0	0	0	0.5
1599678680.562524	1599678680.562524	6.460251046025105	0.0	0	0	0.5
1599678681.0631654	1599678681.0631654	6.497907949790795	0.0	0	0	0.5
1599678681.572281	1599678681.572281	6.535564853556486	1.0	1	0.5	0.5
1599678682.0576563	1599678682.0576563	6.573221757322176	0.0	0	0	0.5
1599678682.5708346	1599678682.5708346	6.610878661087867	1.0	1	0.5	0.5
1599678683.502111	1599678683.502111	6.648535564853557	1.0	1	0.5	0.5
1599678683.560932	1599678683.560932	6.686192468619247	0.0	0	0	0.5
1599678684.0633538	1599678684.0633538	6.7238493723849375	0.0	0	0	0.5
1599678684.555498	1599678684.555498	6.7615062761506275	0.0	0	0	0.5
1599678685.0661142	1599678685.0661142	6.799163179916318	0.0	0	0	0.5
1599678685.566426	1599678685.566426	6.836820083682008	0.0	0	0	0.5
1599678686.0625644	1599678686.0625644	6.874476987447699	0.0	0	0	0.5
1599678686.5616305	1599678686.5616305	6.912133891213389	0.0	0	0	0.5
1599678687.062144	1599678687.062144	6.94979079497908	0.0	0	0	0.5
1599678687.575808	1599678687.575808	6.98744769874477	0.0	0	0	0.5
1599678688.0574539	1599678688.0574539	7.02510460251046	1.0	1	0.5	0.5
1599678688.570576	1599678688.570576	7.062761506276151	0.0	0	0	0.5
1599678689.0642123	1599678689.0642123	7.100418410041841	2.0	2	0.7071067811865476	0.7071067811865476
1599678689.5735557	1599678689.5735557	7.138075313807532	2.0	2	0.7071067811865476	0.7071067811865476
1599678690.0612078	1599678690.0612078	7.175732217573222	2.0	2	0.7071067811865476	0.7071067811865476
1599678690.5688543	1599678690.5688543	7.2133891213389125	3.0	3	0.8660254037844386	0.8660254037844386
1599678691.0668046	1599678691.0668046	7.2510460251046025	5.0	5	1.118033988749895	1.118033988749895
1599678691.565023	1599678691.565023	7.288702928870293	2.0	2	0.7071067811865476	0.7071067811865476
1599678692.0660713	1599678692.0660713	7.326359832635983	5.0	5	1.118033988749895	1.118033988749895
1599678692.5695035	1599678692.5695035	7.364016736401674	3.0	3	0.8660254037844386	0.8660254037844386
1599678693.064494	1599678693.064494	7.401673640167364	1.0	1	0.5	0.5
1599678693.565064	1599678693.565064	7.439330543933054	2.0	2	0.7071067811865476	0.7071067811865476
1599678694.0691326	1599678694.0691326	7.476987447698745	3.0	3	0.8660254037844386	0.8660254037844386
1599678694.5779572	1599678694.5779572	7.514644351464435	3.0	3	0.8660254037844386	0.8660254037844386
1599678695.0634024	1599678695.0634024	7.552301255230126	2.0	2	0.7071067811865476	0.7071067811865476
1599678695.5656285	1599678695.5656285	7.589958158995816	3.0	3	0.8660254037844386	0.8660254037844386
1599678696.06534	1599678696.06534	7.627615062761507	4.0	4	1.0	1.0
1599678696.5699127	1599678696.5699127	7.665271966527197	0.0	0	0	0.5
1599678697.061861	1599678697.061861	7.7029288702928875	0.0	0	0	0.5
1599678697.56956	1599678697.56956	7.7405857740585775	0.0	0	0	0.5
1599678698.0662992	1599678698.0662992	7.778242677824268	1.0	1	0.5	0.5
1599678698.6848965	1599678698.6848965	7.815899581589958	1.0	1	0.5	0.5
1599678699.0688744	1599678699.0688744	7.853556485355648	0.0	0	0	0.5
1599678699.5869	1599678699.5869	7.891213389121339	2.0	2	0.7071067811865476	0.7071067811865476
1599678700.2471442	1599678700.2471442	7.928870292887029	1.0	1	0.5	0.5
1599678700.5971282	1599678700.5971282	7.96652719665272	1.0	1	0.5	0.5
1599678701.0694633	1599678701.0694633	8.00418410041841	0.0	0	0	0.5
1599678701.707019	1599678701.707019	8.0418410041841	0.0	0	0	0.5
1599678702.0678318	1599678702.0678318	8.07949790794979	1.0	1	0.5	0.5
1599678702.565004	1599678702.565004	8.117154811715482	0.0	0	0	0.5
1599678703.023858	1599678703.023858	8.154811715481172	0.0	0	0	0.5
1599678703.728923	1599678703.728923	8.192468619246863	0.0	0	0	0.5
1599678703.924218	1599678703.924218	8.230125523012553	0.0	0	0	0.5
1599678704.3769186	1599678704.3769186	8.267782426778243	0.0	0	0	0.5
1599678704.8300543	1599678704.8300543	8.305439330543933	0.0	0	0	0.5
1599678705.274112	1599678705.274112	8.343096234309623	0.0	0	0	0.5
1599678705.7231653	1599678705.7231653	8.380753138075313	0.0	0	0	0.5
1599678706.173228	1599678706.173228	8.418410041841003	0.0	0	0	0.5
1599678706.6226573	1599678706.6226573	8.456066945606695	0.0	0	0	0.5
1599678707.118547	1599678707.118547	8.493723849372385	0.0	0	0	0.5
1599678707.5254288	1599678707.5254288	8.531380753138077	1.0	1	0.5	0.5
1599678707.9714496	1599678707.9714496	8.569037656903767	1.0	1	0.5	0.5
1599678708.4290683	1599678708.4290683	8.606694560669457	2.0	2	0.7071067811865476	0.7071067811865476
1599678708.8749628	1599678708.8749628	8.644351464435147	0.0	0	0	0.5
1599678709.320286	1599678709.320286	8.682008368200837	2.0	2	0.7071067811865476	0.7071067811865476
1599678709.775854	1599678709.775854	8.719665271966527	0.0	0	0	0.5
1599678710.2261906	1599678710.2261906	8.757322175732217	0.0	0	0	0.5
1599678710.677386	1599678710.677386	8.794979079497908	1.0	1	0.5	0.5
1599678711.1203709	1599678711.1203709	8.832635983263598	0.0	0	0	0.5
1599678711.56823	1599678711.56823	8.87029288702929	0.0	0	0	0.5
1599678712.0695739	1599678712.0695739	8.90794979079498	0.0	0	0	0.5
1599678712.5539498	1599678712.5539498	8.94560669456067	0.0	0	0	0.5
1599678713.052512	1599678713.052512	8.98326359832636	2.0	2	0.7071067811865476	0.7071067811865476
1599678713.5546148	1599678713.5546148	9.02092050209205	0.0	0	0	0.5
1599678714.053263	1599678714.053263	9.05857740585774	0.0	0	0	0.5
1599678714.545302	1599678714.545302	9.096234309623432	1.0	1	0.5	0.5
1599678715.0632894	1599678715.0632894	9.133891213389122	0.0	0	0	0.5
1599678715.5379002	1599678715.5379002	9.171548117154812	0.0	0	0	0.5
1599678716.024715	1599678716.024715	9.209205020920502	0.0	0	0	0.5
1599678716.5247033	1599678716.5247033	9.246861924686193	0.0	0	0	0.5
1599678717.021307	1599678717.021307	9.284518828451883	0.0	0	0	0.5
1599678717.5175583	1599678717.5175583	9.322175732217573	0.0	0	0	0.5
1599678718.0492783	1599678718.0492783	9.359832635983263	0.0	0	0	0.5
1599678718.4998076	1599678718.4998076	9.397489539748955	0.0	0	0	0.5
1599678719.007112	1599678719.007112	9.435146443514645	0.0	0	0	0.5
1599678719.4872196	1599678719.4872196	9.472803347280335	1.0	1	0.5	0.5
1599678720.0330586	1599678720.0330586	9.510460251046025	0.0	0	0	0.5
1599678720.487367	1599678720.487367	9.548117154811715	0.0	0	0	0.5
1599678720.9715347	1599678720.9715347	9.585774058577407	0.0	0	0	0.5
1599678721.4779036	1599678721.4779036	9.623430962343097	1.0	1	0.5	0.5
1599678722.0064893	1599678722.0064893	9.661087866108787	2.0	2	0.7071067811865476	0.7071067811865476
1599678722.5592215	1599678722.5592215	9.698744769874477	0.0	0	0	0.5
1599678723.1049628	1599678723.1049628	9.736401673640168	1.0	1	0.5	0.5
1599678723.6423333	1599678723.6423333	9.774058577405858	0.0	0	0	0.5
1599678724.1949341	1599678724.1949341	9.811715481171548	0.0	0	0	0.5
1599678724.7381113	1599678724.7381113	9.849372384937238	0.0	0	0	0.5
1599678725.2741265	1599678725.2741265	9.887029288702928	0.0	0	0	0.5
1599678725.8210807	1599678725.8210807	9.92468619246862	0.0	0	0	0.5
1599678726.3663068	1599678726.3663068	9.96234309623431	0.0	0	0	0.5
1599678726.9124334	1599678726.9124334	10.0	0.0	0	0	0.5