# <?xml version="1.0" ?>
# <DataFileHeader>
#   <Variables>
#     <Element name="PulseProgram" type="dict">
#       <Element name="PulseProgram" type="str">C:/Users/ions/Documents/IonControl/project_dir/QuditLab/config/PulseProgramsPlus/Ablation_NeutralFluorescence.ppp</Element>
#       <Element name="NULL" type="Quantity">0</Element>
#       <Element name="FFFFFFFF" type="Quantity">18446744073709551615</Element>
#       <Element name="INTERRUPT_EXITCODE" type="Quantity">18446198715942174720</Element>
#       <Element name="InitializationShutter" type="int">4610</Element>
#       <Element name="NaturalAblation_mask" type="int">256</Element>
#       <Element name="NaturalAblation" type="int">256</Element>
#       <Element name="EndShutter" type="int">4610</Element>
#       <Element name="ShutterDelayTime" type="Quantity">0.5 s</Element>
#       <Element name="WindowStartTime" type="Quantity">145 us</Element>
#       <Element name="DetectTime" type="Quantity">20 us</Element>
#       <Element name="DummyVar" type="int">0</Element>
#       <Element name="experiments" type="int">1</Element>
#       <Element name="DetectCounters" type="int">1</Element>
#       <Element name="endLabel" type="Quantity">18446744073709551615</Element>
#       <Element name="experimentsleft" type="Quantity">100</Element>
#       <Element name="currentexperiment" type="Quantity">0</Element>
#       <Element name="inlinevar_1" type="Quantity">1</Element>
#     </Element>
#     <Element name="Scan" type="dict">
#       <Element name="scanParameter" type="str">DummyVar</Element>
#       <Element name="scanTarget" type="str">Internal</Element>
#       <Element name="scantype" type="int">0</Element>
#       <Element name="scanMode" type="int">0</Element>
#       <Element name="xUnit" type="str"></Element>
#       <Element name="xExpression" type="str"></Element>
#       <Element name="loadPP" type="bool">True</Element>
#       <Element name="loadPPName" type="str">Ablation_NeutralFluorescence_Nat.ppp</Element>
#       <Element name="parallelInternalScanParameter" type="str">None</Element>
#     </Element>
#     <ColumnSpec>timeTickFirst, timeTickLast, x, PMT Count, PMT Count_raw, PMT Count_bottom, PMT Count_top</ColumnSpec>
#     <Element name="comment" type="str"></Element>
#     <Element name="lastDataAquired" type="datetime">2020-09-09 19:14:25.005855+00:00</Element>
#     <Element name="name" type="str"></Element>
#     <Element name="traceCreation" type="datetime">2020-09-09 19:12:24.758876+00:00</Element>
#     <Element name="traceFinalized" type="datetime">2020-09-09 19:14:25.009778+00:00</Element>
#     <TracePlottingList>
#       <TracePlotting _bottomColumn="PMT Count_bottom" _filtColumn="None" _fitFunction="None" _heightColumn="height" _rawColumn="PMT Count_raw" _topColumn="PMT Count_top" _xColumn="x" _yColumn="PMT Count" fill="True" name="PMT Count" properties="&lt;trace.PlottedTrace.PlottedTraceProperties object at 0x000002A9FEAAF0F0&gt;" style="0" type="0" windowName="Scan Data" xAxisLabel="DummyVar" xAxisUnit="" yAxisLabel="None">
#         <PlottedTraceProperties averageSameX="False" averageType="0" combinePoints="0"/>
#       </TracePlotting>
#     </TracePlottingList>
#   </Variables>
# </DataFileHeader>
1599678743.5726984	1599678743.5726984	1.0	0.0	0	0	0.5
1599678744.7564714	1599678744.7564714	1.0376569037656904	0.0	0	0	0.5
1599678745.300837	1599678745.300837	1.0753138075313808	0.0	0	0	0.5
1599678745.8382308	1599678745.8382308	1.112970711297071	0.0	0	0	0.5
1599678746.443094	1599678746.443094	1.1506276150627615	0.0	0	0	0.5
1599678746.968316	1599678746.968316	1.1882845188284519	0.0	0	0	0.5
1599678747.4492922	1599678747.4492922	1.2259414225941423	0.0	0	0	0.5
1599678747.9931657	1599678747.9931657	1.2635983263598327	0.0	0	0	0.5
1599678748.5216076	1599678748.5216076	1.301255230125523	0.0	0	0	0.5
1599678749.067521	1599678749.067521	1.3389121338912133	0.0	0	0	0.5
1599678749.6075804	1599678749.6075804	1.3765690376569037	0.0	0	0	0.5
1599678750.1398072	1599678750.1398072	1.4142259414225942	0.0	0	0	0.5
1599678750.6792064	1599678750.6792064	1.4518828451882846	0.0	0	0	0.5
1599678751.2272155	1599678751.2272155	1.489539748953975	0.0	0	0	0.5
1599678751.7602687	1599678751.7602687	1.5271966527196654	0.0	0	0	0.5
1599678752.2964435	1599678752.2964435	1.5648535564853556	0.0	0	0	0.5
1599678752.8447702	1599678752.8447702	1.602510460251046	0.0	0	0	0.5
1599678753.3813825	1599678753.3813825	1.6401673640167365	0.0	0	0	0.5
1599678753.9153998	1599678753.9153998	1.6778242677824267	0.0	0	0	0.5
1599678754.5588312	1599678754.5588312	1.715481171548117	0.0	0	0	0.5
1599678754.9951246	1599678754.9951246	1.7531380753138075	0.0	0	0	0.5
1599678755.499275	1599678755.499275	1.790794979079498	0.0	0	0	0.5
1599678755.98516	1599678755.98516	1.8284518828451883	0.0	0	0	0.5
1599678756.5461326	1599678756.5461326	1.8661087866108788	0.0	0	0	0.5
1599678756.9621942	1599678756.9621942	1.9037656903765692	0.0	0	0	0.5
1599678757.442247	1599678757.442247	1.9414225941422596	0.0	0	0	0.5
1599678757.9257455	1599678757.9257455	1.9790794979079498	1.0	1	0.5	0.5
1599678758.419649	1599678758.419649	2.01673640167364	0.0	0	0	0.5
1599678758.8994637	1599678758.8994637	2.054393305439331	0.0	0	0	0.5
1599678759.3888927	1599678759.3888927	2.092050209205021	0.0	0	0	0.5
1599678759.8634534	1599678759.8634534	2.1297071129707112	0.0	0	0	0.5
1599678760.3559575	1599678760.3559575	2.1673640167364017	0.0	0	0	0.5
1599678760.8321311	1599678760.8321311	2.205020920502092	0.0	0	0	0.5
1599678761.3278677	1599678761.3278677	2.2426778242677825	0.0	0	0	0.5
1599678761.8084562	1599678761.8084562	2.280334728033473	0.0	0	0	0.5
1599678762.2897487	1599678762.2897487	2.3179916317991633	0.0	0	0	0.5
1599678762.7787194	1599678762.7787194	2.3556485355648533	0.0	0	0	0.5
1599678763.2594209	1599678763.2594209	2.393305439330544	0.0	0	0	0.5
1599678763.751681	1599678763.751681	2.430962343096234	0.0	0	0	0.5
1599678764.2404277	1599678764.2404277	2.468619246861925	0.0	0	0	0.5
1599678764.716189	1599678764.716189	2.506276150627615	0.0	0	0	0.5
1599678765.1754105	1599678765.1754105	2.5439330543933054	0.0	0	0	0.5
1599678765.615156	1599678765.615156	2.581589958158996	0.0	0	0	0.5
1599678766.0536735	1599678766.0536735	2.6192468619246863	1.0	1	0.5	0.5
1599678766.491633	1599678766.491633	2.6569037656903767	0.0	0	0	0.5
1599678766.9245698	1599678766.9245698	2.694560669456067	0.0	0	0	0.5
1599678767.3640764	1599678767.3640764	2.7322175732217575	0.0	0	0	0.5
1599678767.7942464	1599678767.7942464	2.7698744769874475	0.0	0	0	0.5
1599678768.2294421	1599678768.2294421	2.8075313807531384	0.0	0	0	0.5
1599678768.6648903	1599678768.6648903	2.8451882845188283	0.0	0	0	0.5
1599678769.1095238	1599678769.1095238	2.882845188284519	0.0	0	0	0.5
1599678769.5363789	1599678769.5363789	2.920502092050209	0.0	0	0	0.5
1599678769.9704235	1599678769.9704235	2.9581589958158996	0.0	0	0	0.5
1599678770.411093	1599678770.411093	2.99581589958159	0.0	0	0	0.5
1599678770.8502564	1599678770.8502564	3.0334728033472804	1.0	1	0.5	0.5
1599678771.2894888	1599678771.2894888	3.071129707112971	0.0	0	0	0.5
1599678771.722655	1599678771.722655	3.1087866108786613	0.0	0	0	0.5
1599678772.1628356	1599678772.1628356	3.1464435146443517	0.0	0	0	0.5
1599678772.5940363	1599678772.5940363	3.184100418410042	0.0	0	0	0.5
1599678773.0287883	1599678773.0287883	3.221757322175732	0.0	0	0	0.5
1599678773.4690554	1599678773.4690554	3.2594142259414225	0.0	0	0	0.5
1599678773.87331	1599678773.87331	3.297071129707113	0.0	0	0	0.5
1599678774.2750623	1599678774.2750623	3.3347280334728033	0.0	0	0	0.5
1599678774.6669931	1599678774.6669931	3.3723849372384938	0.0	0	0	0.5
1599678775.0622442	1599678775.0622442	3.410041841004184	0.0	0	0	0.5
1599678775.4519186	1599678775.4519186	3.4476987447698746	0.0	0	0	0.5
1599678775.8463259	1599678775.8463259	3.485355648535565	1.0	1	0.5	0.5
1599678776.2375762	1599678776.2375762	3.5230125523012554	0.0	0	0	0.5
1599678776.6339781	1599678776.6339781	3.560669456066946	0.0	0	0	0.5
1599678777.0257685	1599678777.0257685	3.5983263598326363	0.0	0	0	0.5
1599678777.4562664	1599678777.4562664	3.6359832635983262	0.0	0	0	0.5
1599678777.8039846	1599678777.8039846	3.6736401673640167	0.0	0	0	0.5
1599678778.2064748	1599678778.2064748	3.711297071129707	2.0	2	0.7071067811865476	0.7071067811865476
1599678778.5906172	1599678778.5906172	3.7489539748953975	0.0	0	0	0.5
1599678778.9833853	1599678778.9833853	3.786610878661088	0.0	0	0	0.5
1599678779.3832183	1599678779.3832183	3.8242677824267783	0.0	0	0	0.5
1599678779.801585	1599678779.801585	3.8619246861924688	1.0	1	0.5	0.5
1599678780.1706662	1599678780.1706662	3.899581589958159	0.0	0	0	0.5
1599678780.5610514	1599678780.5610514	3.9372384937238496	0.0	0	0	0.5
1599678780.9534805	1599678780.9534805	3.97489539748954	0.0	0	0	0.5
1599678781.3440187	1599678781.3440187	4.01255230125523	0.0	0	0	0.5
1599678781.7656705	1599678781.7656705	4.05020920502092	0.0	0	0	0.5
1599678782.2015986	1599678782.2015986	4.087866108786611	0.0	0	0	0.5
1599678782.631889	1599678782.631889	4.125523012552302	0.0	0	0	0.5
1599678783.0713072	1599678783.0713072	4.163179916317992	0.0	0	0	0.5
1599678783.5003257	1599678783.5003257	4.200836820083682	0.0	0	0	0.5
1599678783.9314308	1599678783.9314308	4.2384937238493725	0.0	0	0	0.5
1599678784.3682537	1599678784.3682537	4.276150627615063	0.0	0	0	0.5
1599678784.7936296	1599678784.7936296	4.313807531380753	0.0	0	0	0.5
1599678785.2232192	1599678785.2232192	4.351464435146443	0.0	0	0	0.5
1599678785.658573	1599678785.658573	4.389121338912134	0.0	0	0	0.5
1599678786.0884523	1599678786.0884523	4.426778242677824	0.0	0	0	0.5
1599678786.5188842	1599678786.5188842	4.464435146443515	0.0	0	0	0.5
1599678786.9564393	1599678786.9564393	4.502092050209205	0.0	0	0	0.5
1599678787.3903203	1599678787.3903203	4.539748953974895	0.0	0	0	0.5
1599678787.8263187	1599678787.8263187	4.577405857740586	0.0	0	0	0.5
1599678788.2586098	1599678788.2586098	4.615062761506277	1.0	1	0.5	0.5
1599678788.6915786	1599678788.6915786	4.652719665271967	0.0	0	0	0.5
1599678789.1152802	1599678789.1152802	4.690376569037657	1.0	1	0.5	0.5
1599678789.5523386	1599678789.5523386	4.7280334728033475	0.0	0	0	0.5
1599678789.9793763	1599678789.9793763	4.765690376569038	0.0	0	0	0.5
1599678790.448075	1599678790.448075	4.803347280334728	0.0	0	0	0.5
1599678790.9172063	1599678790.9172063	4.841004184100418	0.0	0	0	0.5
1599678791.3989847	1599678791.3989847	4.878661087866108	0.0	0	0	0.5
1599678791.870472	1599678791.870472	4.916317991631799	0.0	0	0	0.5
1599678792.3483057	1599678792.3483057	4.95397489539749	0.0	0	0	0.5
1599678792.8189487	1599678792.8189487	4.99163179916318	0.0	0	0	0.5
1599678793.3027523	1599678793.3027523	5.02928870292887	0.0	0	0	0.5
1599678793.7792137	1599678793.7792137	5.066945606694561	0.0	0	0	0.5
1599678794.2472463	1599678794.2472463	5.104602510460251	0.0	0	0	0.5
1599678794.7256145	1599678794.7256145	5.142259414225942	0.0	0	0	0.5
1599678795.2033677	1599678795.2033677	5.179916317991632	0.0	0	0	0.5
1599678795.6749318	1599678795.6749318	5.2175732217573225	0.0	0	0	0.5
1599678796.1592681	1599678796.1592681	5.2552301255230125	0.0	0	0	0.5
1599678796.624189	1599678796.624189	5.292887029288703	0.0	0	0	0.5
1599678797.109971	1599678797.109971	5.330543933054393	0.0	0	0	0.5
1599678797.5856457	1599678797.5856457	5.368200836820084	0.0	0	0	0.5
1599678798.0571618	1599678798.0571618	5.405857740585774	0.0	0	0	0.5
1599678798.5338473	1599678798.5338473	5.443514644351464	0.0	0	0	0.5
1599678799.0050864	1599678799.0050864	5.481171548117155	0.0	0	0	0.5
1599678799.4828386	1599678799.4828386	5.518828451882845	0.0	0	0	0.5
1599678799.9995248	1599678799.9995248	5.556485355648536	0.0	0	0	0.5
1599678800.5087943	1599678800.5087943	5.594142259414226	0.0	0	0	0.5
1599678801.0430243	1599678801.0430243	5.631799163179917	0.0	0	0	0.5
1599678801.5663836	1599678801.5663836	5.669456066945607	0.0	0	0	0.5
1599678802.0847633	1599678802.0847633	5.7071129707112975	0.0	0	0	0.5
1599678802.6148791	1599678802.6148791	5.7447698744769875	0.0	0	0	0.5
1599678803.2917209	1599678803.2917209	5.782426778242678	0.0	0	0	0.5
1599678803.931632	1599678803.931632	5.820083682008368	1.0	1	0.5	0.5
1599678804.1929886	1599678804.1929886	5.857740585774058	0.0	0	0	0.5
1599678804.7115936	1599678804.7115936	5.895397489539749	0.0	0	0	0.5
1599678805.225394	1599678805.225394	5.933054393305439	0.0	0	0	0.5
1599678805.7452488	1599678805.7452488	5.97071129707113	0.0	0	0	0.5
1599678806.2716694	1599678806.2716694	6.00836820083682	0.0	0	0	0.5
1599678806.791696	1599678806.791696	6.046025104602511	0.0	0	0	0.5
1599678807.3149538	1599678807.3149538	6.083682008368201	0.0	0	0	0.5
1599678807.8466253	1599678807.8466253	6.121338912133892	0.0	0	0	0.5
1599678808.359077	1599678808.359077	6.158995815899582	0.0	0	0	0.5
1599678808.882238	1599678808.882238	6.1966527196652725	0.0	0	0	0.5
1599678809.4055016	1599678809.4055016	6.2343096234309625	0.0	0	0	0.5
1599678809.9297845	1599678809.9297845	6.2719665271966525	0.0	0	0	0.5
1599678810.50278	1599678810.50278	6.309623430962343	0.0	0	0	0.5
1599678811.0657773	1599678811.0657773	6.347280334728033	0.0	0	0	0.5
1599678811.6496274	1599678811.6496274	6.384937238493724	0.0	0	0	0.5
1599678812.2156518	1599678812.2156518	6.422594142259414	0.0	0	0	0.5
1599678812.8021665	1599678812.8021665	6.460251046025105	0.0	0	0	0.5
1599678813.3747547	1599678813.3747547	6.497907949790795	0.0	0	0	0.5
1599678813.9527588	1599678813.9527588	6.535564853556486	0.0	0	0	0.5
1599678814.5143452	1599678814.5143452	6.573221757322176	0.0	0	0	0.5
1599678815.1061559	1599678815.1061559	6.610878661087867	0.0	0	0	0.5
1599678815.6735408	1599678815.6735408	6.648535564853557	0.0	0	0	0.5
1599678816.2599292	1599678816.2599292	6.686192468619247	0.0	0	0	0.5
1599678817.0363512	1599678817.0363512	6.7238493723849375	0.0	0	0	0.5
1599678817.3967154	1599678817.3967154	6.7615062761506275	0.0	0	0	0.5
1599678817.9833362	1599678817.9833362	6.799163179916318	0.0	0	0	0.5
1599678818.5535488	1599678818.5535488	6.836820083682008	0.0	0	0	0.5
1599678819.1376905	1599678819.1376905	6.874476987447699	0.0	0	0	0.5
1599678819.7115436	1599678819.7115436	6.912133891213389	0.0	0	0	0.5
1599678820.2815282	1599678820.2815282	6.94979079497908	0.0	0	0	0.5
1599678820.9872415	1599678820.9872415	6.98744769874477	0.0	0	0	0.5
1599678821.5849295	1599678821.5849295	7.02510460251046	0.0	0	0	0.5
1599678822.0409439	1599678822.0409439	7.062761506276151	0.0	0	0	0.5
1599678822.7701998	1599678822.7701998	7.100418410041841	0.0	0	0	0.5
1599678823.8540068	1599678823.8540068	7.138075313807532	1.0	1	0.5	0.5
1599678823.9355743	1599678823.9355743	7.175732217573222	0.0	0	0	0.5
1599678824.5800362	1599678824.5800362	7.2133891213389125	0.0	0	0	0.5
1599678825.2130294	1599678825.2130294	7.2510460251046025	0.0	0	0	0.5
1599678825.8531559	1599678825.8531559	7.288702928870293	0.0	0	0	0.5
1599678826.4833777	1599678826.4833777	7.326359832635983	0.0	0	0	0.5
1599678827.1191423	1599678827.1191423	7.364016736401674	0.0	0	0	0.5
1599678827.7456567	1599678827.7456567	7.401673640167364	0.0	0	0	0.5
1599678828.385784	1599678828.385784	7.439330543933054	0.0	0	0	0.5
1599678829.017117	1599678829.017117	7.476987447698745	0.0	0	0	0.5
1599678829.6588242	1599678829.6588242	7.514644351464435	0.0	0	0	0.5
1599678830.2786086	1599678830.2786086	7.552301255230126	0.0	0	0	0.5
1599678830.90039	1599678830.90039	7.589958158995816	0.0	0	0	0.5
1599678831.5463722	1599678831.5463722	7.627615062761507	0.0	0	0	0.5
1599678832.1810322	1599678832.1810322	7.665271966527197	0.0	0	0	0.5
1599678832.8681266	1599678832.8681266	7.7029288702928875	0.0	0	0	0.5
1599678833.4500926	1599678833.4500926	7.7405857740585775	0.0	0	0	0.5
1599678834.0690463	1599678834.0690463	7.778242677824268	0.0	0	0	0.5
1599678834.671324	1599678834.671324	7.815899581589958	0.0	0	0	0.5
1599678835.234125	1599678835.234125	7.853556485355648	0.0	0	0	0.5
1599678835.8043249	1599678835.8043249	7.891213389121339	0.0	0	0	0.5
1599678836.376078	1599678836.376078	7.928870292887029	0.0	0	0	0.5
1599678836.9513028	1599678836.9513028	7.96652719665272	0.0	0	0	0.5
1599678837.516526	1599678837.516526	8.00418410041841	1.0	1	0.5	0.5
1599678838.0836315	1599678838.0836315	8.0418410041841	0.0	0	0	0.5
1599678838.646117	1599678838.646117	8.07949790794979	0.0	0	0	0.5
1599678839.2202039	1599678839.2202039	8.117154811715482	0.0	0	0	0.5
1599678839.8016245	1599678839.8016245	8.154811715481172	0.0	0	0	0.5
1599678840.3584	1599678840.3584	8.192468619246863	0.0	0	0	0.5
1599678840.9294305	1599678840.9294305	8.230125523012553	0.0	0	0	0.5
1599678841.5073915	1599678841.5073915	8.267782426778243	0.0	0	0	0.5
1599678842.0637777	1599678842.0637777	8.305439330543933	0.0	0	0	0.5
1599678842.6396728	1599678842.6396728	8.343096234309623	0.0	0	0	0.5
1599678843.216584	1599678843.216584	8.380753138075313	0.0	0	0	0.5
1599678843.7762735	1599678843.7762735	8.418410041841003	0.0	0	0	0.5
1599678844.3526042	1599678844.3526042	8.456066945606695	1.0	1	0.5	0.5
1599678844.9248435	1599678844.9248435	8.493723849372385	0.0	0	0	0.5
1599678845.4871144	1599678845.4871144	8.531380753138077	0.0	0	0	0.5
1599678846.0137937	1599678846.0137937	8.569037656903767	0.0	0	0	0.5
1599678846.526565	1599678846.526565	8.606694560669457	0.0	0	0	0.5
1599678847.0490122	1599678847.0490122	8.644351464435147	0.0	0	0	0.5
1599678847.551928	1599678847.551928	8.682008368200837	0.0	0	0	0.5
1599678848.0754814	1599678848.0754814	8.719665271966527	0.0	0	0	0.5
1599678848.587526	1599678848.587526	8.757322175732217	0.0	0	0	0.5
1599678849.0962608	1599678849.0962608	8.794979079497908	0.0	0	0	0.5
1599678849.6130893	1599678849.6130893	8.832635983263598	0.0	0	0	0.5
1599678850.1148944	1599678850.1148944	8.87029288702929	0.0	0	0	0.5
1599678850.6315112	1599678850.6315112	8.90794979079498	0.0	0	0	0.5
1599678851.1410453	1599678851.1410453	8.94560669456067	0.0	0	0	0.5
1599678851.6535282	1599678851.6535282	8.98326359832636	0.0	0	0	0.5
1599678852.1733737	1599678852.1733737	9.02092050209205	0.0	0	0	0.5
1599678852.6786635	1599678852.6786635	9.05857740585774	0.0	0	0	0.5
1599678853.2027671	1599678853.2027671	9.096234309623432	0.0	0	0	0.5
1599678853.7174253	1599678853.7174253	9.133891213389122	0.0	0	0	0.5
1599678854.223944	1599678854.223944	9.171548117154812	0.0	0	0	0.5
1599678854.7314718	1599678854.7314718	9.209205020920502	0.0	0	0	0.5
1599678855.2558336	1599678855.2558336	9.246861924686193	0.0	0	0	0.5
1599678855.76721	1599678855.76721	9.284518828451883	0.0	0	0	0.5
1599678856.2449005	1599678856.2449005	9.322175732217573	0.0	0	0	0.5
1599678856.706223	1599678856.706223	9.359832635983263	0.0	0	0	0.5
1599678857.1622372	1599678857.1622372	9.397489539748955	0.0	0	0	0.5
1599678857.6184688	1599678857.6184688	9.435146443514645	0.0	0	0	0.5
1599678858.0812373	1599678858.0812373	9.472803347280335	0.0	0	0	0.5
1599678858.5446386	1599678858.5446386	9.510460251046025	0.0	0	0	0.5
1599678859.0016372	1599678859.0016372	9.548117154811715	0.0	0	0	0.5
1599678859.5152209	1599678859.5152209	9.585774058577407	0.0	0	0	0.5
1599678859.9292872	1599678859.9292872	9.623430962343097	0.0	0	0	0.5
1599678860.3977027	1599678860.3977027	9.661087866108787	0.0	0	0	0.5
1599678860.85505	1599678860.85505	9.698744769874477	0.0	0	0	0.5
1599678861.3176336	1599678861.3176336	9.736401673640168	0.0	0	0	0.5
1599678861.7805252	1599678861.7805252	9.774058577405858	0.0	0	0	0.5
1599678862.2378273	1599678862.2378273	9.811715481171548	1.0	1	0.5	0.5
1599678862.6970997	1599678862.6970997	9.849372384937238	0.0	0	0	0.5
1599678863.16634	1599678863.16634	9.887029288702928	0.0	0	0	0.5
1599678863.6241527	1599678863.6241527	9.92468619246862	0.0	0	0	0.5
1599678864.0816305	1599678864.0816305	9.96234309623431	0.0	0	0	0.5
1599678864.5500813	1599678864.5500813	10.0	0.0	0	0	0.5