# <?xml version="1.0" ?>
# <DataFileHeader>
#   <Variables>
#     <Element name="PulseProgram" type="dict">
#       <Element name="PulseProgram" type="str">C:/Users/ions/Documents/IonControl/project_dir/QuditLab/config/PulseProgramsPlus/Ablation_NeutralFluorescence.ppp</Element>
#       <Element name="NULL" type="Quantity">0</Element>
#       <Element name="FFFFFFFF" type="Quantity">18446744073709551615</Element>
#       <Element name="INTERRUPT_EXITCODE" type="Quantity">18446198715942174720</Element>
#       <Element name="InitializationShutter" type="int">5154</Element>
#       <Element name="NaturalAblation_mask" type="int">256</Element>
#       <Element name="NaturalAblation" type="int">256</Element>
#       <Element name="EndShutter" type="int">5154</Element>
#       <Element name="ShutterDelayTime" type="Quantity">0.5 s</Element>
#       <Element name="WindowStartTime" type="Quantity">145 us</Element>
#       <Element name="DetectTime" type="Quantity">20 us</Element>
#       <Element name="DummyVar" type="int">0</Element>
#       <Element name="experiments" type="int">1</Element>
#       <Element name="DetectCounters" type="int">1</Element>
#       <Element name="endLabel" type="Quantity">18446744073709551615</Element>
#       <Element name="experimentsleft" type="Quantity">100</Element>
#       <Element name="currentexperiment" type="Quantity">0</Element>
#       <Element name="inlinevar_1" type="Quantity">1</Element>
#     </Element>
#     <Element name="Scan" type="dict">
#       <Element name="scanParameter" type="str">DummyVar</Element>
#       <Element name="scanTarget" type="str">Internal</Element>
#       <Element name="scantype" type="int">0</Element>
#       <Element name="scanMode" type="int">0</Element>
#       <Element name="xUnit" type="str"></Element>
#       <Element name="xExpression" type="str"></Element>
#       <Element name="loadPP" type="bool">True</Element>
#       <Element name="loadPPName" type="str">Ablation_NeutralFluorescence_Rad.ppp</Element>
#       <Element name="parallelInternalScanParameter" type="str">None</Element>
#     </Element>
#     <ColumnSpec>timeTickFirst, timeTickLast, x, PMT Count, PMT Count_raw, PMT Count_bottom, PMT Count_top</ColumnSpec>
#     <Element name="comment" type="str"></Element>
#     <Element name="lastDataAquired" type="datetime">2020-09-08 19:30:31.026710+00:00</Element>
#     <Element name="name" type="str"></Element>
#     <Element name="traceCreation" type="datetime">2020-09-08 19:27:54.590238+00:00</Element>
#     <Element name="traceFinalized" type="datetime">2020-09-08 19:30:31.065703+00:00</Element>
#     <TracePlottingList>
#       <TracePlotting _bottomColumn="PMT Count_bottom" _filtColumn="None" _fitFunction="None" _heightColumn="height" _rawColumn="PMT Count_raw" _topColumn="PMT Count_top" _xColumn="x" _yColumn="PMT Count" fill="True" name="PMT Count" properties="&lt;trace.PlottedTrace.PlottedTraceProperties object at 0x000002A9850014E0&gt;" style="0" type="0" windowName="Scan Data" xAxisLabel="DummyVar" xAxisUnit="" yAxisLabel="None">
#         <PlottedTraceProperties averageSameX="False" averageType="0" combinePoints="0"/>
#       </TracePlotting>
#     </TracePlottingList>
#   </Variables>
# </DataFileHeader>
1599593273.4697793	1599593273.4697793	1.0	2.0	2	0.7071067811865476	0.7071067811865476
1599593274.586822	1599593274.586822	2.0	2.0	2	0.7071067811865476	0.7071067811865476
1599593275.1489966	1599593275.1489966	3.0	3.0	3	0.8660254037844386	0.8660254037844386
1599593275.6834643	1599593275.6834643	4.0	7.0	7	1.3228756555322954	1.3228756555322954
1599593276.1754577	1599593276.1754577	5.0	3.0	3	0.8660254037844386	0.8660254037844386
1599593276.7194774	1599593276.7194774	6.0	4.0	4	1.0	1.0
1599593277.2396886	1599593277.2396886	7.0	5.0	5	1.118033988749895	1.118033988749895
1599593277.7779984	1599593277.7779984	8.0	2.0	2	0.7071067811865476	0.7071067811865476
1599593278.3215606	1599593278.3215606	9.0	1.0	1	0.5	0.5
1599593278.8574605	1599593278.8574605	10.0	3.0	3	0.8660254037844386	0.8660254037844386
1599593279.3815951	1599593279.3815951	11.0	2.0	2	0.7071067811865476	0.7071067811865476
1599593279.9338086	1599593279.9338086	12.0	2.0	2	0.7071067811865476	0.7071067811865476
1599593280.459965	1599593280.459965	13.0	4.0	4	1.0	1.0
1599593280.9964867	1599593280.9964867	14.0	2.0	2	0.7071067811865476	0.7071067811865476
1599593281.5347047	1599593281.5347047	15.0	4.0	4	1.0	1.0
1599593282.0722086	1599593282.0722086	16.0	3.0	3	0.8660254037844386	0.8660254037844386
1599593282.6036868	1599593282.6036868	17.0	2.0	2	0.7071067811865476	0.7071067811865476
1599593283.1477652	1599593283.1477652	18.0	3.0	3	0.8660254037844386	0.8660254037844386
1599593283.6902115	1599593283.6902115	19.0	3.0	3	0.8660254037844386	0.8660254037844386
1599593284.299224	1599593284.299224	20.0	0.0	0	0	0.5
1599593284.8749714	1599593284.8749714	21.0	8.0	8	1.4142135623730951	1.4142135623730951
1599593285.4661043	1599593285.4661043	22.0	2.0	2	0.7071067811865476	0.7071067811865476
1599593286.1343727	1599593286.1343727	23.0	2.0	2	0.7071067811865476	0.7071067811865476
1599593286.6532724	1599593286.6532724	24.0	5.0	5	1.118033988749895	1.118033988749895
1599593287.2325003	1599593287.2325003	25.0	3.0	3	0.8660254037844386	0.8660254037844386
1599593287.8171182	1599593287.8171182	26.0	3.0	3	0.8660254037844386	0.8660254037844386
1599593288.4147718	1599593288.4147718	27.0	5.0	5	1.118033988749895	1.118033988749895
1599593288.9979646	1599593288.9979646	28.0	2.0	2	0.7071067811865476	0.7071067811865476
1599593289.5865011	1599593289.5865011	29.0	1.0	1	0.5	0.5
1599593290.1913292	1599593290.1913292	30.0	5.0	5	1.118033988749895	1.118033988749895
1599593290.7726529	1599593290.7726529	31.0	4.0	4	1.0	1.0
1599593291.364592	1599593291.364592	32.0	4.0	4	1.0	1.0
1599593291.9429538	1599593291.9429538	33.0	2.0	2	0.7071067811865476	0.7071067811865476
1599593292.5504122	1599593292.5504122	34.0	5.0	5	1.118033988749895	1.118033988749895
1599593293.1323373	1599593293.1323373	35.0	4.0	4	1.0	1.0
1599593294.0351324	1599593294.0351324	36.0	2.0	2	0.7071067811865476	0.7071067811865476
1599593294.5479436	1599593294.5479436	37.0	3.0	3	0.8660254037844386	0.8660254037844386
1599593295.2508016	1599593295.2508016	38.0	4.0	4	1.0	1.0
1599593295.844915	1599593295.844915	39.0	2.0	2	0.7071067811865476	0.7071067811865476
1599593296.5094876	1599593296.5094876	40.0	5.0	5	1.118033988749895	1.118033988749895
1599593297.1131997	1599593297.1131997	41.0	3.0	3	0.8660254037844386	0.8660254037844386
1599593297.7373066	1599593297.7373066	42.0	4.0	4	1.0	1.0
1599593298.1031911	1599593298.1031911	43.0	4.0	4	1.0	1.0
1599593298.7419062	1599593298.7419062	44.0	4.0	4	1.0	1.0
1599593299.397901	1599593299.397901	45.0	2.0	2	0.7071067811865476	0.7071067811865476
1599593300.0430472	1599593300.0430472	46.0	2.0	2	0.7071067811865476	0.7071067811865476
1599593300.6954222	1599593300.6954222	47.0	3.0	3	0.8660254037844386	0.8660254037844386
1599593301.3693643	1599593301.3693643	48.0	3.0	3	0.8660254037844386	0.8660254037844386
1599593301.9942605	1599593301.9942605	49.0	3.0	3	0.8660254037844386	0.8660254037844386
1599593302.6516194	1599593302.6516194	50.0	2.0	2	0.7071067811865476	0.7071067811865476
1599593303.302889	1599593303.302889	51.0	2.0	2	0.7071067811865476	0.7071067811865476
1599593303.9453564	1599593303.9453564	52.0	8.0	8	1.4142135623730951	1.4142135623730951
1599593304.5886104	1599593304.5886104	53.0	6.0	6	1.224744871391589	1.224744871391589
1599593305.25391	1599593305.25391	54.0	8.0	8	1.4142135623730951	1.4142135623730951
1599593305.8835986	1599593305.8835986	55.0	3.0	3	0.8660254037844386	0.8660254037844386
1599593306.5502727	1599593306.5502727	56.0	5.0	5	1.118033988749895	1.118033988749895
1599593307.177959	1599593307.177959	57.0	4.0	4	1.0	1.0
1599593307.8510664	1599593307.8510664	58.0	3.0	3	0.8660254037844386	0.8660254037844386
1599593308.4626222	1599593308.4626222	59.0	3.0	3	0.8660254037844386	0.8660254037844386
1599593309.036342	1599593309.036342	60.0	4.0	4	1.0	1.0
1599593309.6207182	1599593309.6207182	61.0	5.0	5	1.118033988749895	1.118033988749895
1599593310.3211074	1599593310.3211074	62.0	1.0	1	0.5	0.5
1599593310.7946682	1599593310.7946682	63.0	5.0	5	1.118033988749895	1.118033988749895
1599593311.3797567	1599593311.3797567	64.0	3.0	3	0.8660254037844386	0.8660254037844386
1599593311.967904	1599593311.967904	65.0	2.0	2	0.7071067811865476	0.7071067811865476
1599593312.5490675	1599593312.5490675	66.0	5.0	5	1.118033988749895	1.118033988749895
1599593313.1233816	1599593313.1233816	67.0	7.0	7	1.3228756555322954	1.3228756555322954
1599593313.7149813	1599593313.7149813	68.0	4.0	4	1.0	1.0
1599593314.298429	1599593314.298429	69.0	6.0	6	1.224744871391589	1.224744871391589
1599593314.9439101	1599593314.9439101	70.0	2.0	2	0.7071067811865476	0.7071067811865476
1599593315.4641948	1599593315.4641948	71.0	3.0	3	0.8660254037844386	0.8660254037844386
1599593316.0611093	1599593316.0611093	72.0	5.0	5	1.118033988749895	1.118033988749895
1599593316.6250262	1599593316.6250262	73.0	3.0	3	0.8660254037844386	0.8660254037844386
1599593317.2305353	1599593317.2305353	74.0	3.0	3	0.8660254037844386	0.8660254037844386
1599593317.7960925	1599593317.7960925	75.0	2.0	2	0.7071067811865476	0.7071067811865476
1599593318.3868814	1599593318.3868814	76.0	5.0	5	1.118033988749895	1.118033988749895
1599593318.9758658	1599593318.9758658	77.0	5.0	5	1.118033988749895	1.118033988749895
1599593319.5584245	1599593319.5584245	78.0	3.0	3	0.8660254037844386	0.8660254037844386
1599593320.109831	1599593320.109831	79.0	6.0	6	1.224744871391589	1.224744871391589
1599593320.64405	1599593320.64405	80.0	1.0	1	0.5	0.5
1599593321.1737928	1599593321.1737928	81.0	3.0	3	0.8660254037844386	0.8660254037844386
1599593321.68497	1599593321.68497	82.0	2.0	2	0.7071067811865476	0.7071067811865476
1599593322.223941	1599593322.223941	83.0	5.0	5	1.118033988749895	1.118033988749895
1599593322.7479818	1599593322.7479818	84.0	4.0	4	1.0	1.0
1599593323.265848	1599593323.265848	85.0	3.0	3	0.8660254037844386	0.8660254037844386
1599593323.7876368	1599593323.7876368	86.0	6.0	6	1.224744871391589	1.224744871391589
1599593324.3252473	1599593324.3252473	87.0	5.0	5	1.118033988749895	1.118033988749895
1599593324.8408332	1599593324.8408332	88.0	3.0	3	0.8660254037844386	0.8660254037844386
1599593325.3756204	1599593325.3756204	89.0	7.0	7	1.3228756555322954	1.3228756555322954
1599593325.9072282	1599593325.9072282	90.0	5.0	5	1.118033988749895	1.118033988749895
1599593326.414927	1599593326.414927	91.0	11.0	11	1.6583123951777	1.6583123951777
1599593326.950979	1599593326.950979	92.0	2.0	2	0.7071067811865476	0.7071067811865476
1599593327.4758484	1599593327.4758484	93.0	5.0	5	1.118033988749895	1.118033988749895
1599593328.0110264	1599593328.0110264	94.0	3.0	3	0.8660254037844386	0.8660254037844386
1599593328.5193737	1599593328.5193737	95.0	7.0	7	1.3228756555322954	1.3228756555322954
1599593329.0520673	1599593329.0520673	96.0	2.0	2	0.7071067811865476	0.7071067811865476
1599593329.5661893	1599593329.5661893	97.0	5.0	5	1.118033988749895	1.118033988749895
1599593330.107324	1599593330.107324	98.0	3.0	3	0.8660254037844386	0.8660254037844386
1599593330.6087081	1599593330.6087081	99.0	5.0	5	1.118033988749895	1.118033988749895
1599593331.0802052	1599593331.0802052	100.0	0.0	0	0	0.5
1599593331.5570264	1599593331.5570264	101.0	8.0	8	1.4142135623730951	1.4142135623730951
1599593332.027431	1599593332.027431	102.0	7.0	7	1.3228756555322954	1.3228756555322954
1599593332.503735	1599593332.503735	103.0	8.0	8	1.4142135623730951	1.4142135623730951
1599593332.9746	1599593332.9746	104.0	8.0	8	1.4142135623730951	1.4142135623730951
1599593333.447669	1599593333.447669	105.0	10.0	10	1.5811388300841898	1.5811388300841898
1599593333.9176338	1599593333.9176338	106.0	7.0	7	1.3228756555322954	1.3228756555322954
1599593334.3932114	1599593334.3932114	107.0	4.0	4	1.0	1.0
1599593334.8624456	1599593334.8624456	108.0	5.0	5	1.118033988749895	1.118033988749895
1599593335.3383877	1599593335.3383877	109.0	4.0	4	1.0	1.0
1599593335.817333	1599593335.817333	110.0	1.0	1	0.5	0.5
1599593336.2834594	1599593336.2834594	111.0	5.0	5	1.118033988749895	1.118033988749895
1599593336.7601957	1599593336.7601957	112.0	3.0	3	0.8660254037844386	0.8660254037844386
1599593337.2252228	1599593337.2252228	113.0	3.0	3	0.8660254037844386	0.8660254037844386
1599593337.7886853	1599593337.7886853	114.0	5.0	5	1.118033988749895	1.118033988749895
1599593338.1660998	1599593338.1660998	115.0	8.0	8	1.4142135623730951	1.4142135623730951
1599593338.6462207	1599593338.6462207	116.0	3.0	3	0.8660254037844386	0.8660254037844386
1599593339.1148567	1599593339.1148567	117.0	3.0	3	0.8660254037844386	0.8660254037844386
1599593339.5853717	1599593339.5853717	118.0	3.0	3	0.8660254037844386	0.8660254037844386
1599593340.0447977	1599593340.0447977	119.0	2.0	2	0.7071067811865476	0.7071067811865476
1599593340.4781952	1599593340.4781952	120.0	4.0	4	1.0	1.0
1599593340.9472835	1599593340.9472835	121.0	4.0	4	1.0	1.0
1599593341.4649343	1599593341.4649343	122.0	1.0	1	0.5	0.5
1599593341.7483017	1599593341.7483017	123.0	7.0	7	1.3228756555322954	1.3228756555322954
1599593342.1898441	1599593342.1898441	124.0	5.0	5	1.118033988749895	1.118033988749895
1599593342.6017249	1599593342.6017249	125.0	2.0	2	0.7071067811865476	0.7071067811865476
1599593343.0316842	1599593343.0316842	126.0	2.0	2	0.7071067811865476	0.7071067811865476
1599593343.456866	1599593343.456866	127.0	5.0	5	1.118033988749895	1.118033988749895
1599593343.883081	1599593343.883081	128.0	3.0	3	0.8660254037844386	0.8660254037844386
1599593344.3060234	1599593344.3060234	129.0	1.0	1	0.5	0.5
1599593344.7285545	1599593344.7285545	130.0	7.0	7	1.3228756555322954	1.3228756555322954
1599593345.1508734	1599593345.1508734	131.0	4.0	4	1.0	1.0
1599593345.5809684	1599593345.5809684	132.0	0.0	0	0	0.5
1599593346.016654	1599593346.016654	133.0	5.0	5	1.118033988749895	1.118033988749895
1599593346.4307876	1599593346.4307876	134.0	2.0	2	0.7071067811865476	0.7071067811865476
1599593346.8597558	1599593346.8597558	135.0	2.0	2	0.7071067811865476	0.7071067811865476
1599593347.2842815	1599593347.2842815	136.0	2.0	2	0.7071067811865476	0.7071067811865476
1599593347.71113	1599593347.71113	137.0	2.0	2	0.7071067811865476	0.7071067811865476
1599593348.1402285	1599593348.1402285	138.0	4.0	4	1.0	1.0
1599593348.5532274	1599593348.5532274	139.0	3.0	3	0.8660254037844386	0.8660254037844386
1599593348.926691	1599593348.926691	140.0	4.0	4	1.0	1.0
1599593349.3178532	1599593349.3178532	141.0	6.0	6	1.224744871391589	1.224744871391589
1599593349.691229	1599593349.691229	142.0	0.0	0	0	0.5
1599593350.0823686	1599593350.0823686	143.0	3.0	3	0.8660254037844386	0.8660254037844386
1599593350.4619403	1599593350.4619403	144.0	5.0	5	1.118033988749895	1.118033988749895
1599593350.8439088	1599593350.8439088	145.0	7.0	7	1.3228756555322954	1.3228756555322954
1599593351.2948167	1599593351.2948167	146.0	1.0	1	0.5	0.5
1599593351.6070216	1599593351.6070216	147.0	4.0	4	1.0	1.0
1599593351.998129	1599593351.998129	148.0	4.0	4	1.0	1.0
1599593352.3781404	1599593352.3781404	149.0	3.0	3	0.8660254037844386	0.8660254037844386
1599593352.7651496	1599593352.7651496	150.0	2.0	2	0.7071067811865476	0.7071067811865476
1599593353.1410172	1599593353.1410172	151.0	2.0	2	0.7071067811865476	0.7071067811865476
1599593353.5747526	1599593353.5747526	152.0	0.0	0	0	0.5
1599593353.9118948	1599593353.9118948	153.0	5.0	5	1.118033988749895	1.118033988749895
1599593354.2880042	1599593354.2880042	154.0	4.0	4	1.0	1.0
1599593354.6716323	1599593354.6716323	155.0	4.0	4	1.0	1.0
1599593355.0595882	1599593355.0595882	156.0	5.0	5	1.118033988749895	1.118033988749895
1599593355.4376597	1599593355.4376597	157.0	3.0	3	0.8660254037844386	0.8660254037844386
1599593355.8255734	1599593355.8255734	158.0	4.0	4	1.0	1.0
1599593356.2176778	1599593356.2176778	159.0	4.0	4	1.0	1.0
1599593356.6435595	1599593356.6435595	160.0	8.0	8	1.4142135623730951	1.4142135623730951
1599593357.0571606	1599593357.0571606	161.0	0.0	0	0	0.5
1599593357.489598	1599593357.489598	162.0	3.0	3	0.8660254037844386	0.8660254037844386
1599593357.9084544	1599593357.9084544	163.0	5.0	5	1.118033988749895	1.118033988749895
1599593358.3324645	1599593358.3324645	164.0	2.0	2	0.7071067811865476	0.7071067811865476
1599593358.7412415	1599593358.7412415	165.0	4.0	4	1.0	1.0
1599593359.1627755	1599593359.1627755	166.0	6.0	6	1.224744871391589	1.224744871391589
1599593359.5862975	1599593359.5862975	167.0	3.0	3	0.8660254037844386	0.8660254037844386
1599593360.0070236	1599593360.0070236	168.0	1.0	1	0.5	0.5
1599593360.435187	1599593360.435187	169.0	4.0	4	1.0	1.0
1599593360.8554518	1599593360.8554518	170.0	3.0	3	0.8660254037844386	0.8660254037844386
1599593361.2853217	1599593361.2853217	171.0	2.0	2	0.7071067811865476	0.7071067811865476
1599593361.702096	1599593361.702096	172.0	1.0	1	0.5	0.5
1599593362.1153486	1599593362.1153486	173.0	2.0	2	0.7071067811865476	0.7071067811865476
1599593362.53769	1599593362.53769	174.0	5.0	5	1.118033988749895	1.118033988749895
1599593362.9558604	1599593362.9558604	175.0	1.0	1	0.5	0.5
1599593363.383816	1599593363.383816	176.0	3.0	3	0.8660254037844386	0.8660254037844386
1599593363.8014898	1599593363.8014898	177.0	9.0	9	1.5	1.5
1599593364.2230003	1599593364.2230003	178.0	3.0	3	0.8660254037844386	0.8660254037844386
1599593364.655124	1599593364.655124	179.0	4.0	4	1.0	1.0
1599593365.1219213	1599593365.1219213	180.0	3.0	3	0.8660254037844386	0.8660254037844386
1599593365.5864623	1599593365.5864623	181.0	3.0	3	0.8660254037844386	0.8660254037844386
1599593366.0474775	1599593366.0474775	182.0	3.0	3	0.8660254037844386	0.8660254037844386
1599593366.5096295	1599593366.5096295	183.0	3.0	3	0.8660254037844386	0.8660254037844386
1599593366.9762669	1599593366.9762669	184.0	0.0	0	0	0.5
1599593367.4726782	1599593367.4726782	185.0	3.0	3	0.8660254037844386	0.8660254037844386
1599593367.9074	1599593367.9074	186.0	3.0	3	0.8660254037844386	0.8660254037844386
1599593368.3797827	1599593368.3797827	187.0	4.0	4	1.0	1.0
1599593368.8306603	1599593368.8306603	188.0	3.0	3	0.8660254037844386	0.8660254037844386
1599593369.298486	1599593369.298486	189.0	3.0	3	0.8660254037844386	0.8660254037844386
1599593369.7620974	1599593369.7620974	190.0	4.0	4	1.0	1.0
1599593370.2205637	1599593370.2205637	191.0	2.0	2	0.7071067811865476	0.7071067811865476
1599593370.687003	1599593370.687003	192.0	6.0	6	1.224744871391589	1.224744871391589
1599593371.150375	1599593371.150375	193.0	5.0	5	1.118033988749895	1.118033988749895
1599593371.6246912	1599593371.6246912	194.0	4.0	4	1.0	1.0
1599593372.090121	1599593372.090121	195.0	1.0	1	0.5	0.5
1599593372.537937	1599593372.537937	196.0	7.0	7	1.3228756555322954	1.3228756555322954
1599593373.0005288	1599593373.0005288	197.0	5.0	5	1.118033988749895	1.118033988749895
1599593373.469434	1599593373.469434	198.0	7.0	7	1.3228756555322954	1.3228756555322954
1599593373.959895	1599593373.959895	199.0	3.0	3	0.8660254037844386	0.8660254037844386
1599593374.456238	1599593374.456238	200.0	7.0	7	1.3228756555322954	1.3228756555322954
1599593374.9691668	1599593374.9691668	201.0	3.0	3	0.8660254037844386	0.8660254037844386
1599593375.4763532	1599593375.4763532	202.0	5.0	5	1.118033988749895	1.118033988749895
1599593375.9813328	1599593375.9813328	203.0	6.0	6	1.224744871391589	1.224744871391589
1599593376.5080757	1599593376.5080757	204.0	9.0	9	1.5	1.5
1599593376.997052	1599593376.997052	205.0	7.0	7	1.3228756555322954	1.3228756555322954
1599593377.527404	1599593377.527404	206.0	4.0	4	1.0	1.0
1599593378.035574	1599593378.035574	207.0	4.0	4	1.0	1.0
1599593378.5325592	1599593378.5325592	208.0	8.0	8	1.4142135623730951	1.4142135623730951
1599593379.0571795	1599593379.0571795	209.0	4.0	4	1.0	1.0
1599593379.5716765	1599593379.5716765	210.0	3.0	3	0.8660254037844386	0.8660254037844386
1599593380.0746593	1599593380.0746593	211.0	3.0	3	0.8660254037844386	0.8660254037844386
1599593380.5710735	1599593380.5710735	212.0	5.0	5	1.118033988749895	1.118033988749895
1599593381.0932596	1599593381.0932596	213.0	7.0	7	1.3228756555322954	1.3228756555322954
1599593381.6026676	1599593381.6026676	214.0	9.0	9	1.5	1.5
1599593382.102098	1599593382.102098	215.0	5.0	5	1.118033988749895	1.118033988749895
1599593382.6243343	1599593382.6243343	216.0	5.0	5	1.118033988749895	1.118033988749895
1599593383.1233342	1599593383.1233342	217.0	10.0	10	1.5811388300841898	1.5811388300841898
1599593383.6327288	1599593383.6327288	218.0	5.0	5	1.118033988749895	1.118033988749895
1599593384.1605668	1599593384.1605668	219.0	3.0	3	0.8660254037844386	0.8660254037844386
1599593384.7207656	1599593384.7207656	220.0	4.0	4	1.0	1.0
1599593385.2951632	1599593385.2951632	221.0	5.0	5	1.118033988749895	1.118033988749895
1599593385.8507037	1599593385.8507037	222.0	4.0	4	1.0	1.0
1599593386.4158237	1599593386.4158237	223.0	9.0	9	1.5	1.5
1599593386.976479	1599593386.976479	224.0	3.0	3	0.8660254037844386	0.8660254037844386
1599593387.5381172	1599593387.5381172	225.0	3.0	3	0.8660254037844386	0.8660254037844386
1599593388.0894806	1599593388.0894806	226.0	7.0	7	1.3228756555322954	1.3228756555322954
1599593388.6598763	1599593388.6598763	227.0	5.0	5	1.118033988749895	1.118033988749895
1599593389.209293	1599593389.209293	228.0	1.0	1	0.5	0.5
1599593389.7803621	1599593389.7803621	229.0	6.0	6	1.224744871391589	1.224744871391589
1599593390.3292344	1599593390.3292344	230.0	2.0	2	0.7071067811865476	0.7071067811865476
1599593390.9002001	1599593390.9002001	231.0	6.0	6	1.224744871391589	1.224744871391589
1599593391.4465246	1599593391.4465246	232.0	2.0	2	0.7071067811865476	0.7071067811865476
1599593392.0074317	1599593392.0074317	233.0	2.0	2	0.7071067811865476	0.7071067811865476
1599593392.668202	1599593392.668202	234.0	2.0	2	0.7071067811865476	0.7071067811865476
1599593393.1303606	1599593393.1303606	235.0	1.0	1	0.5	0.5
1599593393.7096689	1599593393.7096689	236.0	3.0	3	0.8660254037844386	0.8660254037844386
1599593394.2487614	1599593394.2487614	237.0	1.0	1	0.5	0.5
1599593394.8250556	1599593394.8250556	238.0	3.0	3	0.8660254037844386	0.8660254037844386
1599593395.4104455	1599593395.4104455	239.0	3.0	3	0.8660254037844386	0.8660254037844386
1599593396.0292196	1599593396.0292196	240.0	4.0	4	1.0	1.0
1599593396.6306906	1599593396.6306906	241.0	2.0	2	0.7071067811865476	0.7071067811865476
1599593397.240597	1599593397.240597	242.0	3.0	3	0.8660254037844386	0.8660254037844386
1599593397.8710325	1599593397.8710325	243.0	2.0	2	0.7071067811865476	0.7071067811865476
1599593398.9033875	1599593398.9033875	244.0	4.0	4	1.0	1.0
1599593399.116147	1599593399.116147	245.0	4.0	4	1.0	1.0
1599593399.733859	1599593399.733859	246.0	7.0	7	1.3228756555322954	1.3228756555322954
1599593400.3359635	1599593400.3359635	247.0	2.0	2	0.7071067811865476	0.7071067811865476
1599593400.954627	1599593400.954627	248.0	2.0	2	0.7071067811865476	0.7071067811865476
1599593401.5550652	1599593401.5550652	249.0	2.0	2	0.7071067811865476	0.7071067811865476
1599593402.189284	1599593402.189284	250.0	2.0	2	0.7071067811865476	0.7071067811865476
1599593402.808773	1599593402.808773	251.0	4.0	4	1.0	1.0
1599593403.425007	1599593403.425007	252.0	7.0	7	1.3228756555322954	1.3228756555322954
1599593404.0554004	1599593404.0554004	253.0	3.0	3	0.8660254037844386	0.8660254037844386
1599593404.669515	1599593404.669515	254.0	0.0	0	0	0.5
1599593405.2604804	1599593405.2604804	255.0	3.0	3	0.8660254037844386	0.8660254037844386
1599593405.900661	1599593405.900661	256.0	4.0	4	1.0	1.0
1599593406.5069795	1599593406.5069795	257.0	2.0	2	0.7071067811865476	0.7071067811865476
1599593407.1373205	1599593407.1373205	258.0	5.0	5	1.118033988749895	1.118033988749895
1599593407.7279646	1599593407.7279646	259.0	3.0	3	0.8660254037844386	0.8660254037844386
1599593408.2637677	1599593408.2637677	260.0	2.0	2	0.7071067811865476	0.7071067811865476
1599593408.830553	1599593408.830553	261.0	4.0	4	1.0	1.0
1599593409.3906896	1599593409.3906896	262.0	3.0	3	0.8660254037844386	0.8660254037844386
1599593409.9659896	1599593409.9659896	263.0	1.0	1	0.5	0.5
1599593410.5086443	1599593410.5086443	264.0	2.0	2	0.7071067811865476	0.7071067811865476
1599593411.0559251	1599593411.0559251	265.0	5.0	5	1.118033988749895	1.118033988749895
1599593411.601397	1599593411.601397	266.0	3.0	3	0.8660254037844386	0.8660254037844386
1599593412.1573281	1599593412.1573281	267.0	3.0	3	0.8660254037844386	0.8660254037844386
1599593412.7019825	1599593412.7019825	268.0	1.0	1	0.5	0.5
1599593413.2691486	1599593413.2691486	269.0	1.0	1	0.5	0.5
1599593413.8214748	1599593413.8214748	270.0	3.0	3	0.8660254037844386	0.8660254037844386
1599593414.3825138	1599593414.3825138	271.0	3.0	3	0.8660254037844386	0.8660254037844386
1599593414.945812	1599593414.945812	272.0	5.0	5	1.118033988749895	1.118033988749895
1599593415.4883351	1599593415.4883351	273.0	4.0	4	1.0	1.0
1599593416.0456457	1599593416.0456457	274.0	3.0	3	0.8660254037844386	0.8660254037844386
1599593416.5967886	1599593416.5967886	275.0	2.0	2	0.7071067811865476	0.7071067811865476
1599593417.1459892	1599593417.1459892	276.0	3.0	3	0.8660254037844386	0.8660254037844386
1599593417.7079046	1599593417.7079046	277.0	2.0	2	0.7071067811865476	0.7071067811865476
1599593418.2644794	1599593418.2644794	278.0	2.0	2	0.7071067811865476	0.7071067811865476
1599593418.8031619	1599593418.8031619	279.0	1.0	1	0.5	0.5
1599593419.3013527	1599593419.3013527	280.0	2.0	2	0.7071067811865476	0.7071067811865476
1599593419.7921147	1599593419.7921147	281.0	1.0	1	0.5	0.5
1599593420.3071845	1599593420.3071845	282.0	3.0	3	0.8660254037844386	0.8660254037844386
1599593420.8668385	1599593420.8668385	283.0	3.0	3	0.8660254037844386	0.8660254037844386
1599593421.298712	1599593421.298712	284.0	2.0	2	0.7071067811865476	0.7071067811865476
1599593421.7917957	1599593421.7917957	285.0	4.0	4	1.0	1.0
1599593422.304556	1599593422.304556	286.0	4.0	4	1.0	1.0
1599593422.7996733	1599593422.7996733	287.0	1.0	1	0.5	0.5
1599593423.2959301	1599593423.2959301	288.0	1.0	1	0.5	0.5
1599593423.7982888	1599593423.7982888	289.0	1.0	1	0.5	0.5
1599593424.2899153	1599593424.2899153	290.0	5.0	5	1.118033988749895	1.118033988749895
1599593424.7922945	1599593424.7922945	291.0	2.0	2	0.7071067811865476	0.7071067811865476
1599593425.2943685	1599593425.2943685	292.0	3.0	3	0.8660254037844386	0.8660254037844386
1599593425.796633	1599593425.796633	293.0	3.0	3	0.8660254037844386	0.8660254037844386
1599593426.2871382	1599593426.2871382	294.0	3.0	3	0.8660254037844386	0.8660254037844386
1599593426.7915413	1599593426.7915413	295.0	1.0	1	0.5	0.5
1599593427.2900648	1599593427.2900648	296.0	2.0	2	0.7071067811865476	0.7071067811865476
1599593427.7859461	1599593427.7859461	297.0	2.0	2	0.7071067811865476	0.7071067811865476
1599593428.2975693	1599593428.2975693	298.0	6.0	6	1.224744871391589	1.224744871391589
1599593428.7704058	1599593428.7704058	299.0	1.0	1	0.5	0.5
1599593429.226672	1599593429.226672	300.0	3.0	3	0.8660254037844386	0.8660254037844386
1599593429.664028	1599593429.664028	301.0	0.0	0	0	0.5
1599593430.1253166	1599593430.1253166	302.0	1.0	1	0.5	0.5
1599593430.5713909	1599593430.5713909	303.0	8.0	8	1.4142135623730951	1.4142135623730951