# <?xml version="1.0" ?>
# <DataFileHeader>
#   <Variables>
#     <Element name="PulseProgram" type="dict">
#       <Element name="PulseProgram" type="str">C:/Users/ions/Documents/IonControl/project_dir/QuditLab/config/PulseProgramsPlus/Ablation_NeutralFluorescence.ppp</Element>
#       <Element name="NULL" type="Quantity">0</Element>
#       <Element name="FFFFFFFF" type="Quantity">18446744073709551615</Element>
#       <Element name="INTERRUPT_EXITCODE" type="Quantity">18446198715942174720</Element>
#       <Element name="InitializationShutter" type="int">5154</Element>
#       <Element name="NaturalAblation_mask" type="int">256</Element>
#       <Element name="NaturalAblation" type="int">256</Element>
#       <Element name="EndShutter" type="int">5154</Element>
#       <Element name="ShutterDelayTime" type="Quantity">0.5 s</Element>
#       <Element name="WindowStartTime" type="Quantity">145 us</Element>
#       <Element name="DetectTime" type="Quantity">20 us</Element>
#       <Element name="DummyVar" type="int">0</Element>
#       <Element name="experiments" type="int">1</Element>
#       <Element name="DetectCounters" type="int">1</Element>
#       <Element name="endLabel" type="Quantity">18446744073709551615</Element>
#       <Element name="experimentsleft" type="Quantity">100</Element>
#       <Element name="currentexperiment" type="Quantity">0</Element>
#       <Element name="inlinevar_1" type="Quantity">1</Element>
#     </Element>
#     <Element name="Scan" type="dict">
#       <Element name="scanParameter" type="str">DummyVar</Element>
#       <Element name="scanTarget" type="str">Internal</Element>
#       <Element name="scantype" type="int">0</Element>
#       <Element name="scanMode" type="int">0</Element>
#       <Element name="xUnit" type="str"></Element>
#       <Element name="xExpression" type="str"></Element>
#       <Element name="loadPP" type="bool">True</Element>
#       <Element name="loadPPName" type="str">Ablation_NeutralFluorescence_Rad.ppp</Element>
#       <Element name="parallelInternalScanParameter" type="str">None</Element>
#     </Element>
#     <ColumnSpec>timeTickFirst, timeTickLast, x, PMT Count, PMT Count_raw, PMT Count_bottom, PMT Count_top</ColumnSpec>
#     <Element name="comment" type="str"></Element>
#     <Element name="lastDataAquired" type="datetime">2020-09-08 18:26:11.558690+00:00</Element>
#     <Element name="name" type="str"></Element>
#     <Element name="traceCreation" type="datetime">2020-09-08 18:22:21.131997+00:00</Element>
#     <Element name="traceFinalized" type="datetime">2020-09-08 18:26:11.812726+00:00</Element>
#     <TracePlottingList>
#       <TracePlotting _bottomColumn="PMT Count_bottom" _filtColumn="None" _fitFunction="None" _heightColumn="height" _rawColumn="PMT Count_raw" _topColumn="PMT Count_top" _xColumn="x" _yColumn="PMT Count" fill="True" name="PMT Count" properties="&lt;trace.PlottedTrace.PlottedTraceProperties object at 0x000002A984F84940&gt;" style="0" type="0" windowName="Scan Data" xAxisLabel="DummyVar" xAxisUnit="" yAxisLabel="None">
#         <PlottedTraceProperties averageSameX="False" averageType="0" combinePoints="0"/>
#       </TracePlotting>
#     </TracePlottingList>
#   </Variables>
# </DataFileHeader>
1599589340.0675118	1599589340.0675118	1.0	2.0	2	0.7071067811865476	0.7071067811865476
1599589341.1298053	1599589341.1298053	2.0	5.0	5	1.118033988749895	1.118033988749895
1599589341.648259	1599589341.648259	3.0	6.0	6	1.224744871391589	1.224744871391589
1599589342.1423113	1599589342.1423113	4.0	8.0	8	1.4142135623730951	1.4142135623730951
1599589342.665723	1599589342.665723	5.0	5.0	5	1.118033988749895	1.118033988749895
1599589343.191005	1599589343.191005	6.0	4.0	4	1.0	1.0
1599589343.6856008	1599589343.6856008	7.0	2.0	2	0.7071067811865476	0.7071067811865476
1599589344.213227	1599589344.213227	8.0	5.0	5	1.118033988749895	1.118033988749895
1599589344.6998591	1599589344.6998591	9.0	5.0	5	1.118033988749895	1.118033988749895
1599589345.2375069	1599589345.2375069	10.0	4.0	4	1.0	1.0
1599589345.7327492	1599589345.7327492	11.0	6.0	6	1.224744871391589	1.224744871391589
1599589346.2527547	1599589346.2527547	12.0	8.0	8	1.4142135623730951	1.4142135623730951
1599589346.7533998	1599589346.7533998	13.0	5.0	5	1.118033988749895	1.118033988749895
1599589347.273408	1599589347.273408	14.0	5.0	5	1.118033988749895	1.118033988749895
1599589347.7819364	1599589347.7819364	15.0	5.0	5	1.118033988749895	1.118033988749895
1599589348.2983437	1599589348.2983437	16.0	7.0	7	1.3228756555322954	1.3228756555322954
1599589348.8004901	1599589348.8004901	17.0	2.0	2	0.7071067811865476	0.7071067811865476
1599589349.2670884	1599589349.2670884	18.0	3.0	3	0.8660254037844386	0.8660254037844386
1599589349.7178292	1599589349.7178292	19.0	3.0	3	0.8660254037844386	0.8660254037844386
1599589350.1843987	1599589350.1843987	20.0	2.0	2	0.7071067811865476	0.7071067811865476
1599589350.640908	1599589350.640908	21.0	5.0	5	1.118033988749895	1.118033988749895
1599589351.106703	1599589351.106703	22.0	3.0	3	0.8660254037844386	0.8660254037844386
1599589351.5689979	1599589351.5689979	23.0	3.0	3	0.8660254037844386	0.8660254037844386
1599589352.0377035	1599589352.0377035	24.0	7.0	7	1.3228756555322954	1.3228756555322954
1599589352.487029	1599589352.487029	25.0	4.0	4	1.0	1.0
1599589352.9599113	1599589352.9599113	26.0	5.0	5	1.118033988749895	1.118033988749895
1599589353.414086	1599589353.414086	27.0	5.0	5	1.118033988749895	1.118033988749895
1599589353.8819413	1599589353.8819413	28.0	6.0	6	1.224744871391589	1.224744871391589
1599589354.3314493	1599589354.3314493	29.0	4.0	4	1.0	1.0
1599589354.8026836	1599589354.8026836	30.0	3.0	3	0.8660254037844386	0.8660254037844386
1599589355.265423	1599589355.265423	31.0	5.0	5	1.118033988749895	1.118033988749895
1599589355.7258399	1599589355.7258399	32.0	1.0	1	0.5	0.5
1599589356.1773517	1599589356.1773517	33.0	4.0	4	1.0	1.0
1599589356.6535628	1599589356.6535628	34.0	5.0	5	1.118033988749895	1.118033988749895
1599589357.1021554	1599589357.1021554	35.0	4.0	4	1.0	1.0
1599589357.5719993	1599589357.5719993	36.0	4.0	4	1.0	1.0
1599589358.0197663	1599589358.0197663	37.0	2.0	2	0.7071067811865476	0.7071067811865476
1599589358.4700956	1599589358.4700956	38.0	3.0	3	0.8660254037844386	0.8660254037844386
1599589358.8498085	1599589358.8498085	39.0	4.0	4	1.0	1.0
1599589359.2702374	1599589359.2702374	40.0	6.0	6	1.224744871391589	1.224744871391589
1599589359.6810946	1599589359.6810946	41.0	1.0	1	0.5	0.5
1599589360.101898	1599589360.101898	42.0	11.0	11	1.6583123951777	1.6583123951777
1599589360.5109255	1599589360.5109255	43.0	3.0	3	0.8660254037844386	0.8660254037844386
1599589360.928347	1599589360.928347	44.0	7.0	7	1.3228756555322954	1.3228756555322954
1599589361.33834	1599589361.33834	45.0	7.0	7	1.3228756555322954	1.3228756555322954
1599589361.7631261	1599589361.7631261	46.0	6.0	6	1.224744871391589	1.224744871391589
1599589362.178251	1599589362.178251	47.0	8.0	8	1.4142135623730951	1.4142135623730951
1599589362.5990431	1599589362.5990431	48.0	4.0	4	1.0	1.0
1599589362.999647	1599589362.999647	49.0	5.0	5	1.118033988749895	1.118033988749895
1599589363.4147213	1599589363.4147213	50.0	6.0	6	1.224744871391589	1.224744871391589
1599589363.8299541	1599589363.8299541	51.0	4.0	4	1.0	1.0
1599589364.2587748	1599589364.2587748	52.0	10.0	10	1.5811388300841898	1.5811388300841898
1599589364.6720035	1599589364.6720035	53.0	5.0	5	1.118033988749895	1.118033988749895
1599589365.0857887	1599589365.0857887	54.0	4.0	4	1.0	1.0
1599589365.4956527	1599589365.4956527	55.0	5.0	5	1.118033988749895	1.118033988749895
1599589365.9224913	1599589365.9224913	56.0	11.0	11	1.6583123951777	1.6583123951777
1599589366.325001	1599589366.325001	57.0	3.0	3	0.8660254037844386	0.8660254037844386
1599589366.698315	1599589366.698315	58.0	3.0	3	0.8660254037844386	0.8660254037844386
1599589367.0684652	1599589367.0684652	59.0	6.0	6	1.224744871391589	1.224744871391589
1599589367.4461477	1599589367.4461477	60.0	7.0	7	1.3228756555322954	1.3228756555322954
1599589367.8196437	1599589367.8196437	61.0	9.0	9	1.5	1.5
1599589368.1918108	1599589368.1918108	62.0	5.0	5	1.118033988749895	1.118033988749895
1599589368.5664978	1599589368.5664978	63.0	7.0	7	1.3228756555322954	1.3228756555322954
1599589368.9377031	1599589368.9377031	64.0	3.0	3	0.8660254037844386	0.8660254037844386
1599589369.313914	1599589369.313914	65.0	2.0	2	0.7071067811865476	0.7071067811865476
1599589369.689027	1599589369.689027	66.0	4.0	4	1.0	1.0
1599589370.055314	1599589370.055314	67.0	7.0	7	1.3228756555322954	1.3228756555322954
1599589370.4318812	1599589370.4318812	68.0	6.0	6	1.224744871391589	1.224744871391589
1599589370.8087506	1599589370.8087506	69.0	3.0	3	0.8660254037844386	0.8660254037844386
1599589371.2564473	1599589371.2564473	70.0	4.0	4	1.0	1.0
1599589371.5794759	1599589371.5794759	71.0	8.0	8	1.4142135623730951	1.4142135623730951
1599589371.925683	1599589371.925683	72.0	3.0	3	0.8660254037844386	0.8660254037844386
1599589372.3014393	1599589372.3014393	73.0	3.0	3	0.8660254037844386	0.8660254037844386
1599589372.6782985	1599589372.6782985	74.0	12.0	12	1.7320508075688772	1.7320508075688772
1599589373.0446243	1599589373.0446243	75.0	5.0	5	1.118033988749895	1.118033988749895
1599589373.4302106	1599589373.4302106	76.0	5.0	5	1.118033988749895	1.118033988749895
1599589373.813027	1599589373.813027	77.0	6.0	6	1.224744871391589	1.224744871391589
1599589374.2308054	1599589374.2308054	78.0	7.0	7	1.3228756555322954	1.3228756555322954
1599589374.6207767	1599589374.6207767	79.0	6.0	6	1.224744871391589	1.224744871391589
1599589375.0427012	1599589375.0427012	80.0	7.0	7	1.3228756555322954	1.3228756555322954
1599589375.4518878	1599589375.4518878	81.0	5.0	5	1.118033988749895	1.118033988749895
1599589375.8594112	1599589375.8594112	82.0	7.0	7	1.3228756555322954	1.3228756555322954
1599589376.2661057	1599589376.2661057	83.0	6.0	6	1.224744871391589	1.224744871391589
1599589376.680442	1599589376.680442	84.0	1.0	1	0.5	0.5
1599589377.091116	1599589377.091116	85.0	13.0	13	1.8027756377319946	1.8027756377319946
1599589377.5042562	1599589377.5042562	86.0	4.0	4	1.0	1.0
1599589377.9200284	1599589377.9200284	87.0	8.0	8	1.4142135623730951	1.4142135623730951
1599589378.3304405	1599589378.3304405	88.0	3.0	3	0.8660254037844386	0.8660254037844386
1599589378.7392142	1599589378.7392142	89.0	7.0	7	1.3228756555322954	1.3228756555322954
1599589379.1619456	1599589379.1619456	90.0	7.0	7	1.3228756555322954	1.3228756555322954
1599589379.582624	1599589379.582624	91.0	9.0	9	1.5	1.5
1599589379.9830947	1599589379.9830947	92.0	5.0	5	1.118033988749895	1.118033988749895
1599589380.380487	1599589380.380487	93.0	7.0	7	1.3228756555322954	1.3228756555322954
1599589380.7978961	1599589380.7978961	94.0	5.0	5	1.118033988749895	1.118033988749895
1599589381.2025774	1599589381.2025774	95.0	8.0	8	1.4142135623730951	1.4142135623730951
1599589381.6169662	1599589381.6169662	96.0	6.0	6	1.224744871391589	1.224744871391589
1599589382.0302083	1599589382.0302083	97.0	7.0	7	1.3228756555322954	1.3228756555322954
1599589382.4926252	1599589382.4926252	98.0	6.0	6	1.224744871391589	1.224744871391589
1599589382.941303	1599589382.941303	99.0	5.0	5	1.118033988749895	1.118033988749895
1599589383.3893259	1599589383.3893259	100.0	5.0	5	1.118033988749895	1.118033988749895
1599589383.850447	1599589383.850447	101.0	7.0	7	1.3228756555322954	1.3228756555322954
1599589384.2986684	1599589384.2986684	102.0	3.0	3	0.8660254037844386	0.8660254037844386
1599589384.7483382	1599589384.7483382	103.0	9.0	9	1.5	1.5
1599589385.207943	1599589385.207943	104.0	13.0	13	1.8027756377319946	1.8027756377319946
1599589385.649611	1599589385.649611	105.0	4.0	4	1.0	1.0
1599589386.1126685	1599589386.1126685	106.0	3.0	3	0.8660254037844386	0.8660254037844386
1599589386.5548944	1599589386.5548944	107.0	7.0	7	1.3228756555322954	1.3228756555322954
1599589387.008383	1599589387.008383	108.0	7.0	7	1.3228756555322954	1.3228756555322954
1599589387.45877	1599589387.45877	109.0	5.0	5	1.118033988749895	1.118033988749895
1599589387.911479	1599589387.911479	110.0	10.0	10	1.5811388300841898	1.5811388300841898
1599589388.368747	1599589388.368747	111.0	3.0	3	0.8660254037844386	0.8660254037844386
1599589388.8246794	1599589388.8246794	112.0	2.0	2	0.7071067811865476	0.7071067811865476
1599589389.2771347	1599589389.2771347	113.0	6.0	6	1.224744871391589	1.224744871391589
1599589389.7367394	1599589389.7367394	114.0	1.0	1	0.5	0.5
1599589390.180604	1599589390.180604	115.0	3.0	3	0.8660254037844386	0.8660254037844386
1599589390.6396348	1599589390.6396348	116.0	2.0	2	0.7071067811865476	0.7071067811865476
1599589391.0860987	1599589391.0860987	117.0	4.0	4	1.0	1.0
1599589391.5821707	1599589391.5821707	118.0	1.0	1	0.5	0.5
1599589392.0803828	1599589392.0803828	119.0	2.0	2	0.7071067811865476	0.7071067811865476
1599589392.5785923	1599589392.5785923	120.0	1.0	1	0.5	0.5
1599589393.0777082	1599589393.0777082	121.0	4.0	4	1.0	1.0
1599589393.7402596	1599589393.7402596	122.0	6.0	6	1.224744871391589	1.224744871391589
1599589394.074502	1599589394.074502	123.0	5.0	5	1.118033988749895	1.118033988749895
1599589394.594811	1599589394.594811	124.0	4.0	4	1.0	1.0
1599589395.072354	1599589395.072354	125.0	2.0	2	0.7071067811865476	0.7071067811865476
1599589395.5674157	1599589395.5674157	126.0	2.0	2	0.7071067811865476	0.7071067811865476
1599589396.0712361	1599589396.0712361	127.0	4.0	4	1.0	1.0
1599589396.5595176	1599589396.5595176	128.0	5.0	5	1.118033988749895	1.118033988749895
1599589397.0573077	1599589397.0573077	129.0	1.0	1	0.5	0.5
1599589397.5706885	1599589397.5706885	130.0	0.0	0	0	0.5
1599589398.0584726	1599589398.0584726	131.0	6.0	6	1.224744871391589	1.224744871391589
1599589398.5595267	1599589398.5595267	132.0	4.0	4	1.0	1.0
1599589399.0572014	1599589399.0572014	133.0	6.0	6	1.224744871391589	1.224744871391589
1599589399.5441117	1599589399.5441117	134.0	3.0	3	0.8660254037844386	0.8660254037844386
1599589400.0441823	1599589400.0441823	135.0	1.0	1	0.5	0.5
1599589400.542274	1599589400.542274	136.0	1.0	1	0.5	0.5
1599589401.0597234	1599589401.0597234	137.0	2.0	2	0.7071067811865476	0.7071067811865476
1599589401.6122444	1599589401.6122444	138.0	3.0	3	0.8660254037844386	0.8660254037844386
1599589402.1521678	1599589402.1521678	139.0	3.0	3	0.8660254037844386	0.8660254037844386
1599589402.6959472	1599589402.6959472	140.0	7.0	7	1.3228756555322954	1.3228756555322954
1599589403.2354007	1599589403.2354007	141.0	1.0	1	0.5	0.5
1599589403.7958477	1599589403.7958477	142.0	5.0	5	1.118033988749895	1.118033988749895
1599589404.3311784	1599589404.3311784	143.0	5.0	5	1.118033988749895	1.118033988749895
1599589404.887063	1599589404.887063	144.0	2.0	2	0.7071067811865476	0.7071067811865476
1599589405.43706	1599589405.43706	145.0	1.0	1	0.5	0.5
1599589405.9893038	1599589405.9893038	146.0	0.0	0	0	0.5
1599589406.5216765	1599589406.5216765	147.0	2.0	2	0.7071067811865476	0.7071067811865476
1599589407.069938	1599589407.069938	148.0	3.0	3	0.8660254037844386	0.8660254037844386
1599589407.6393218	1599589407.6393218	149.0	4.0	4	1.0	1.0
1599589408.1991005	1599589408.1991005	150.0	4.0	4	1.0	1.0
1599589408.7073486	1599589408.7073486	151.0	3.0	3	0.8660254037844386	0.8660254037844386
1599589409.2704704	1599589409.2704704	152.0	3.0	3	0.8660254037844386	0.8660254037844386
1599589409.8015501	1599589409.8015501	153.0	7.0	7	1.3228756555322954	1.3228756555322954
1599589410.3504472	1599589410.3504472	154.0	2.0	2	0.7071067811865476	0.7071067811865476
1599589410.9057922	1599589410.9057922	155.0	3.0	3	0.8660254037844386	0.8660254037844386
1599589411.456137	1599589411.456137	156.0	2.0	2	0.7071067811865476	0.7071067811865476
1599589412.0092607	1599589412.0092607	157.0	5.0	5	1.118033988749895	1.118033988749895
1599589412.6217198	1599589412.6217198	158.0	4.0	4	1.0	1.0
1599589413.216683	1599589413.216683	159.0	5.0	5	1.118033988749895	1.118033988749895
1599589413.8126256	1599589413.8126256	160.0	3.0	3	0.8660254037844386	0.8660254037844386
1599589414.4212806	1599589414.4212806	161.0	2.0	2	0.7071067811865476	0.7071067811865476
1599589415.0224674	1599589415.0224674	162.0	2.0	2	0.7071067811865476	0.7071067811865476
1599589415.6205466	1599589415.6205466	163.0	5.0	5	1.118033988749895	1.118033988749895
1599589416.2317834	1599589416.2317834	164.0	2.0	2	0.7071067811865476	0.7071067811865476
1599589416.830057	1599589416.830057	165.0	3.0	3	0.8660254037844386	0.8660254037844386
1599589417.4251742	1599589417.4251742	166.0	5.0	5	1.118033988749895	1.118033988749895
1599589418.0387666	1599589418.0387666	167.0	3.0	3	0.8660254037844386	0.8660254037844386
1599589418.6388986	1599589418.6388986	168.0	7.0	7	1.3228756555322954	1.3228756555322954
1599589419.240494	1599589419.240494	169.0	4.0	4	1.0	1.0
1599589419.8422358	1599589419.8422358	170.0	3.0	3	0.8660254037844386	0.8660254037844386
1599589420.4385822	1599589420.4385822	171.0	3.0	3	0.8660254037844386	0.8660254037844386
1599589421.0344443	1599589421.0344443	172.0	4.0	4	1.0	1.0
1599589421.6403136	1599589421.6403136	173.0	7.0	7	1.3228756555322954	1.3228756555322954
1599589422.2502682	1599589422.2502682	174.0	8.0	8	1.4142135623730951	1.4142135623730951
1599589422.8531494	1599589422.8531494	175.0	5.0	5	1.118033988749895	1.118033988749895
1599589423.454576	1599589423.454576	176.0	3.0	3	0.8660254037844386	0.8660254037844386
1599589424.055512	1599589424.055512	177.0	5.0	5	1.118033988749895	1.118033988749895
1599589424.7330892	1599589424.7330892	178.0	2.0	2	0.7071067811865476	0.7071067811865476
1599589425.3844538	1599589425.3844538	179.0	5.0	5	1.118033988749895	1.118033988749895
1599589426.056313	1599589426.056313	180.0	5.0	5	1.118033988749895	1.118033988749895
1599589426.7130542	1599589426.7130542	181.0	3.0	3	0.8660254037844386	0.8660254037844386
1599589427.378593	1599589427.378593	182.0	10.0	10	1.5811388300841898	1.5811388300841898
1599589428.038367	1599589428.038367	183.0	2.0	2	0.7071067811865476	0.7071067811865476
1599589428.7020664	1599589428.7020664	184.0	4.0	4	1.0	1.0
1599589429.365937	1599589429.365937	185.0	6.0	6	1.224744871391589	1.224744871391589
1599589430.0285852	1599589430.0285852	186.0	2.0	2	0.7071067811865476	0.7071067811865476
1599589430.6822815	1599589430.6822815	187.0	3.0	3	0.8660254037844386	0.8660254037844386
1599589431.3422213	1599589431.3422213	188.0	6.0	6	1.224744871391589	1.224744871391589
1599589432.004252	1599589432.004252	189.0	1.0	1	0.5	0.5
1599589432.6729176	1599589432.6729176	190.0	6.0	6	1.224744871391589	1.224744871391589
1599589433.3995004	1599589433.3995004	191.0	7.0	7	1.3228756555322954	1.3228756555322954
1599589434.0002823	1599589434.0002823	192.0	4.0	4	1.0	1.0
1599589434.6604576	1599589434.6604576	193.0	6.0	6	1.224744871391589	1.224744871391589
1599589435.312499	1599589435.312499	194.0	2.0	2	0.7071067811865476	0.7071067811865476
1599589435.9844894	1599589435.9844894	195.0	3.0	3	0.8660254037844386	0.8660254037844386
1599589436.6549819	1599589436.6549819	196.0	4.0	4	1.0	1.0
1599589437.3028376	1599589437.3028376	197.0	3.0	3	0.8660254037844386	0.8660254037844386
1599589437.8936632	1599589437.8936632	198.0	8.0	8	1.4142135623730951	1.4142135623730951
1599589438.4874308	1599589438.4874308	199.0	8.0	8	1.4142135623730951	1.4142135623730951
1599589439.0890067	1599589439.0890067	200.0	1.0	1	0.5	0.5
1599589439.682068	1599589439.682068	201.0	6.0	6	1.224744871391589	1.224744871391589
1599589440.2753394	1599589440.2753394	202.0	4.0	4	1.0	1.0
1599589440.8687875	1599589440.8687875	203.0	1.0	1	0.5	0.5
1599589441.4732938	1599589441.4732938	204.0	6.0	6	1.224744871391589	1.224744871391589
1599589442.0663927	1599589442.0663927	205.0	6.0	6	1.224744871391589	1.224744871391589
1599589442.651389	1599589442.651389	206.0	4.0	4	1.0	1.0
1599589443.2503011	1599589443.2503011	207.0	2.0	2	0.7071067811865476	0.7071067811865476
1599589443.8597093	1599589443.8597093	208.0	5.0	5	1.118033988749895	1.118033988749895
1599589444.4541104	1599589444.4541104	209.0	8.0	8	1.4142135623730951	1.4142135623730951
1599589445.0351532	1599589445.0351532	210.0	3.0	3	0.8660254037844386	0.8660254037844386
1599589445.6369524	1599589445.6369524	211.0	7.0	7	1.3228756555322954	1.3228756555322954
1599589446.2834742	1599589446.2834742	212.0	6.0	6	1.224744871391589	1.224744871391589
1599589446.824647	1599589446.824647	213.0	5.0	5	1.118033988749895	1.118033988749895
1599589447.432339	1599589447.432339	214.0	3.0	3	0.8660254037844386	0.8660254037844386
1599589448.021461	1599589448.021461	215.0	3.0	3	0.8660254037844386	0.8660254037844386
1599589448.616347	1599589448.616347	216.0	1.0	1	0.5	0.5
1599589449.2036998	1599589449.2036998	217.0	3.0	3	0.8660254037844386	0.8660254037844386
1599589449.7373655	1599589449.7373655	218.0	4.0	4	1.0	1.0
1599589450.2884736	1599589450.2884736	219.0	11.0	11	1.6583123951777	1.6583123951777
1599589450.8093898	1599589450.8093898	220.0	3.0	3	0.8660254037844386	0.8660254037844386
1599589451.3446805	1599589451.3446805	221.0	6.0	6	1.224744871391589	1.224744871391589
1599589451.8905234	1599589451.8905234	222.0	6.0	6	1.224744871391589	1.224744871391589
1599589452.4208744	1599589452.4208744	223.0	5.0	5	1.118033988749895	1.118033988749895
1599589452.9546754	1599589452.9546754	224.0	5.0	5	1.118033988749895	1.118033988749895
1599589453.4871075	1599589453.4871075	225.0	8.0	8	1.4142135623730951	1.4142135623730951
1599589454.0290291	1599589454.0290291	226.0	6.0	6	1.224744871391589	1.224744871391589
1599589454.5673778	1599589454.5673778	227.0	6.0	6	1.224744871391589	1.224744871391589
1599589455.1003776	1599589455.1003776	228.0	7.0	7	1.3228756555322954	1.3228756555322954
1599589455.6395926	1599589455.6395926	229.0	7.0	7	1.3228756555322954	1.3228756555322954
1599589456.1804523	1599589456.1804523	230.0	4.0	4	1.0	1.0
1599589456.7178526	1599589456.7178526	231.0	2.0	2	0.7071067811865476	0.7071067811865476
1599589457.2474065	1599589457.2474065	232.0	3.0	3	0.8660254037844386	0.8660254037844386
1599589457.7939787	1599589457.7939787	233.0	2.0	2	0.7071067811865476	0.7071067811865476
1599589458.3287084	1599589458.3287084	234.0	7.0	7	1.3228756555322954	1.3228756555322954
1599589458.8586273	1599589458.8586273	235.0	3.0	3	0.8660254037844386	0.8660254037844386
1599589459.713997	1599589459.713997	236.0	3.0	3	0.8660254037844386	0.8660254037844386
1599589460.150015	1599589460.150015	237.0	1.0	1	0.5	0.5
1599589460.4883196	1599589460.4883196	238.0	6.0	6	1.224744871391589	1.224744871391589
1599589460.883197	1599589460.883197	239.0	5.0	5	1.118033988749895	1.118033988749895
1599589461.3726246	1599589461.3726246	240.0	2.0	2	0.7071067811865476	0.7071067811865476
1599589461.8568733	1599589461.8568733	241.0	4.0	4	1.0	1.0
1599589462.335651	1599589462.335651	242.0	2.0	2	0.7071067811865476	0.7071067811865476
1599589462.8227847	1599589462.8227847	243.0	3.0	3	0.8660254037844386	0.8660254037844386
1599589463.3931942	1599589463.3931942	244.0	5.0	5	1.118033988749895	1.118033988749895
1599589463.8234007	1599589463.8234007	245.0	4.0	4	1.0	1.0
1599589464.2651334	1599589464.2651334	246.0	8.0	8	1.4142135623730951	1.4142135623730951
1599589464.7510786	1599589464.7510786	247.0	4.0	4	1.0	1.0
1599589465.2314363	1599589465.2314363	248.0	0.0	0	0	0.5
1599589465.721001	1599589465.721001	249.0	6.0	6	1.224744871391589	1.224744871391589
1599589466.2013972	1599589466.2013972	250.0	1.0	1	0.5	0.5
1599589466.6766882	1599589466.6766882	251.0	3.0	3	0.8660254037844386	0.8660254037844386
1599589467.1646173	1599589467.1646173	252.0	2.0	2	0.7071067811865476	0.7071067811865476
1599589467.6465094	1599589467.6465094	253.0	2.0	2	0.7071067811865476	0.7071067811865476
1599589468.125092	1599589468.125092	254.0	3.0	3	0.8660254037844386	0.8660254037844386
1599589468.614747	1599589468.614747	255.0	2.0	2	0.7071067811865476	0.7071067811865476
1599589469.0992167	1599589469.0992167	256.0	6.0	6	1.224744871391589	1.224744871391589
1599589469.5663218	1599589469.5663218	257.0	2.0	2	0.7071067811865476	0.7071067811865476
1599589469.9990315	1599589469.9990315	258.0	2.0	2	0.7071067811865476	0.7071067811865476
1599589470.4379408	1599589470.4379408	259.0	3.0	3	0.8660254037844386	0.8660254037844386
1599589470.866928	1599589470.866928	260.0	3.0	3	0.8660254037844386	0.8660254037844386
1599589471.3032293	1599589471.3032293	261.0	4.0	4	1.0	1.0
1599589471.7348254	1599589471.7348254	262.0	5.0	5	1.118033988749895	1.118033988749895
1599589472.1696079	1599589472.1696079	263.0	3.0	3	0.8660254037844386	0.8660254037844386
1599589472.6078732	1599589472.6078732	264.0	3.0	3	0.8660254037844386	0.8660254037844386
1599589473.037915	1599589473.037915	265.0	1.0	1	0.5	0.5
1599589473.4801023	1599589473.4801023	266.0	4.0	4	1.0	1.0
1599589473.9073222	1599589473.9073222	267.0	3.0	3	0.8660254037844386	0.8660254037844386
1599589474.3451898	1599589474.3451898	268.0	6.0	6	1.224744871391589	1.224744871391589
1599589474.820593	1599589474.820593	269.0	5.0	5	1.118033988749895	1.118033988749895
1599589475.2187312	1599589475.2187312	270.0	1.0	1	0.5	0.5
1599589475.6425116	1599589475.6425116	271.0	4.0	4	1.0	1.0
1599589476.0856802	1599589476.0856802	272.0	3.0	3	0.8660254037844386	0.8660254037844386
1599589476.512866	1599589476.512866	273.0	4.0	4	1.0	1.0
1599589476.958535	1599589476.958535	274.0	4.0	4	1.0	1.0
1599589477.3907006	1599589477.3907006	275.0	3.0	3	0.8660254037844386	0.8660254037844386
1599589477.8173048	1599589477.8173048	276.0	5.0	5	1.118033988749895	1.118033988749895
1599589478.2500765	1599589478.2500765	277.0	1.0	1	0.5	0.5
1599589478.6444414	1599589478.6444414	278.0	3.0	3	0.8660254037844386	0.8660254037844386
1599589479.0267928	1599589479.0267928	279.0	5.0	5	1.118033988749895	1.118033988749895
1599589479.4191756	1599589479.4191756	280.0	5.0	5	1.118033988749895	1.118033988749895
1599589479.80953	1599589479.80953	281.0	4.0	4	1.0	1.0
1599589480.208988	1599589480.208988	282.0	4.0	4	1.0	1.0
1599589480.590482	1599589480.590482	283.0	3.0	3	0.8660254037844386	0.8660254037844386
1599589480.9867227	1599589480.9867227	284.0	3.0	3	0.8660254037844386	0.8660254037844386
1599589481.376498	1599589481.376498	285.0	3.0	3	0.8660254037844386	0.8660254037844386
1599589481.7676792	1599589481.7676792	286.0	1.0	1	0.5	0.5
1599589482.1578302	1599589482.1578302	287.0	1.0	1	0.5	0.5
1599589482.5495842	1599589482.5495842	288.0	4.0	4	1.0	1.0
1599589482.943694	1599589482.943694	289.0	3.0	3	0.8660254037844386	0.8660254037844386
1599589483.3348227	1599589483.3348227	290.0	4.0	4	1.0	1.0
1599589483.726613	1599589483.726613	291.0	1.0	1	0.5	0.5
1599589484.116821	1599589484.116821	292.0	5.0	5	1.118033988749895	1.118033988749895
1599589484.506377	1599589484.506377	293.0	7.0	7	1.3228756555322954	1.3228756555322954
1599589484.8949778	1599589484.8949778	294.0	4.0	4	1.0	1.0
1599589485.2835786	1599589485.2835786	295.0	2.0	2	0.7071067811865476	0.7071067811865476
1599589485.6753201	1599589485.6753201	296.0	1.0	1	0.5	0.5
1599589486.0628777	1599589486.0628777	297.0	3.0	3	0.8660254037844386	0.8660254037844386
1599589486.4119878	1599589486.4119878	298.0	4.0	4	1.0	1.0
1599589486.7638571	1599589486.7638571	299.0	5.0	5	1.118033988749895	1.118033988749895
1599589487.1222997	1599589487.1222997	300.0	5.0	5	1.118033988749895	1.118033988749895
1599589487.4670517	1599589487.4670517	301.0	1.0	1	0.5	0.5
1599589487.8187497	1599589487.8187497	302.0	2.0	2	0.7071067811865476	0.7071067811865476
1599589488.1719482	1599589488.1719482	303.0	4.0	4	1.0	1.0
1599589488.5262663	1599589488.5262663	304.0	1.0	1	0.5	0.5
1599589488.8804858	1599589488.8804858	305.0	3.0	3	0.8660254037844386	0.8660254037844386
1599589489.233905	1599589489.233905	306.0	7.0	7	1.3228756555322954	1.3228756555322954
1599589489.5793848	1599589489.5793848	307.0	5.0	5	1.118033988749895	1.118033988749895
1599589489.9687824	1599589489.9687824	308.0	3.0	3	0.8660254037844386	0.8660254037844386
1599589490.2849152	1599589490.2849152	309.0	4.0	4	1.0	1.0
1599589490.6346345	1599589490.6346345	310.0	3.0	3	0.8660254037844386	0.8660254037844386
1599589491.0150712	1599589491.0150712	311.0	3.0	3	0.8660254037844386	0.8660254037844386
1599589491.3378263	1599589491.3378263	312.0	3.0	3	0.8660254037844386	0.8660254037844386
1599589491.6963556	1599589491.6963556	313.0	7.0	7	1.3228756555322954	1.3228756555322954
1599589492.0495174	1599589492.0495174	314.0	5.0	5	1.118033988749895	1.118033988749895
1599589492.4014099	1599589492.4014099	315.0	2.0	2	0.7071067811865476	0.7071067811865476
1599589492.7434852	1599589492.7434852	316.0	1.0	1	0.5	0.5
1599589493.1042	1599589493.1042	317.0	2.0	2	0.7071067811865476	0.7071067811865476
1599589493.5014038	1599589493.5014038	318.0	4.0	4	1.0	1.0
1599589493.88403	1599589493.88403	319.0	6.0	6	1.224744871391589	1.224744871391589
1599589494.2747366	1599589494.2747366	320.0	5.0	5	1.118033988749895	1.118033988749895
1599589494.655677	1599589494.655677	321.0	4.0	4	1.0	1.0
1599589495.0401583	1599589495.0401583	322.0	2.0	2	0.7071067811865476	0.7071067811865476
1599589495.4345648	1599589495.4345648	323.0	2.0	2	0.7071067811865476	0.7071067811865476
1599589495.8131723	1599589495.8131723	324.0	7.0	7	1.3228756555322954	1.3228756555322954
1599589496.2009194	1599589496.2009194	325.0	2.0	2	0.7071067811865476	0.7071067811865476
1599589496.5968277	1599589496.5968277	326.0	2.0	2	0.7071067811865476	0.7071067811865476
1599589496.9816914	1599589496.9816914	327.0	1.0	1	0.5	0.5
1599589497.3631418	1599589497.3631418	328.0	4.0	4	1.0	1.0
1599589497.749861	1599589497.749861	329.0	8.0	8	1.4142135623730951	1.4142135623730951
1599589498.1415784	1599589498.1415784	330.0	7.0	7	1.3228756555322954	1.3228756555322954
1599589498.527649	1599589498.527649	331.0	2.0	2	0.7071067811865476	0.7071067811865476
1599589498.917835	1599589498.917835	332.0	5.0	5	1.118033988749895	1.118033988749895
1599589499.2986302	1599589499.2986302	333.0	8.0	8	1.4142135623730951	1.4142135623730951
1599589499.6849806	1599589499.6849806	334.0	8.0	8	1.4142135623730951	1.4142135623730951
1599589500.076425	1599589500.076425	335.0	6.0	6	1.224744871391589	1.224744871391589
1599589500.467307	1599589500.467307	336.0	4.0	4	1.0	1.0
1599589500.8629951	1599589500.8629951	337.0	6.0	6	1.224744871391589	1.224744871391589
1599589501.5418468	1599589501.5418468	338.0	3.0	3	0.8660254037844386	0.8660254037844386
1599589501.7072327	1599589501.7072327	339.0	6.0	6	1.224744871391589	1.224744871391589
1599589502.1389127	1599589502.1389127	340.0	2.0	2	0.7071067811865476	0.7071067811865476
1599589502.5635967	1599589502.5635967	341.0	8.0	8	1.4142135623730951	1.4142135623730951
1599589502.992777	1599589502.992777	342.0	4.0	4	1.0	1.0
1599589503.4175181	1599589503.4175181	343.0	5.0	5	1.118033988749895	1.118033988749895
1599589503.845043	1599589503.845043	344.0	1.0	1	0.5	0.5
1599589504.269944	1599589504.269944	345.0	8.0	8	1.4142135623730951	1.4142135623730951
1599589504.6960835	1599589504.6960835	346.0	2.0	2	0.7071067811865476	0.7071067811865476
1599589505.1211505	1599589505.1211505	347.0	1.0	1	0.5	0.5
1599589505.539157	1599589505.539157	348.0	7.0	7	1.3228756555322954	1.3228756555322954
1599589505.9749155	1599589505.9749155	349.0	7.0	7	1.3228756555322954	1.3228756555322954
1599589506.397463	1599589506.397463	350.0	2.0	2	0.7071067811865476	0.7071067811865476
1599589506.8184993	1599589506.8184993	351.0	5.0	5	1.118033988749895	1.118033988749895
1599589507.247943	1599589507.247943	352.0	6.0	6	1.224744871391589	1.224744871391589
1599589507.6791422	1599589507.6791422	353.0	2.0	2	0.7071067811865476	0.7071067811865476
1599589508.1052468	1599589508.1052468	354.0	2.0	2	0.7071067811865476	0.7071067811865476
1599589508.5233746	1599589508.5233746	355.0	4.0	4	1.0	1.0
1599589508.9530263	1599589508.9530263	356.0	5.0	5	1.118033988749895	1.118033988749895
1599589509.383431	1599589509.383431	357.0	5.0	5	1.118033988749895	1.118033988749895
1599589509.8592205	1599589509.8592205	358.0	3.0	3	0.8660254037844386	0.8660254037844386
1599589510.3198974	1599589510.3198974	359.0	6.0	6	1.224744871391589	1.224744871391589
1599589510.7918055	1599589510.7918055	360.0	4.0	4	1.0	1.0
1599589511.255259	1599589511.255259	361.0	0.0	0	0	0.5
1599589511.7247713	1599589511.7247713	362.0	3.0	3	0.8660254037844386	0.8660254037844386
1599589512.2001712	1599589512.2001712	363.0	7.0	7	1.3228756555322954	1.3228756555322954
1599589512.6614523	1599589512.6614523	364.0	6.0	6	1.224744871391589	1.224744871391589
1599589513.133167	1599589513.133167	365.0	4.0	4	1.0	1.0
1599589513.600092	1599589513.600092	366.0	3.0	3	0.8660254037844386	0.8660254037844386
1599589514.1709847	1599589514.1709847	367.0	4.0	4	1.0	1.0
1599589514.6073434	1599589514.6073434	368.0	2.0	2	0.7071067811865476	0.7071067811865476
1599589515.0154357	1599589515.0154357	369.0	7.0	7	1.3228756555322954	1.3228756555322954
1599589515.4855819	1599589515.4855819	370.0	4.0	4	1.0	1.0
1599589515.9452164	1599589515.9452164	371.0	5.0	5	1.118033988749895	1.118033988749895
1599589516.4082355	1599589516.4082355	372.0	4.0	4	1.0	1.0
1599589516.8865635	1599589516.8865635	373.0	3.0	3	0.8660254037844386	0.8660254037844386
1599589517.3533707	1599589517.3533707	374.0	1.0	1	0.5	0.5
1599589517.8211682	1599589517.8211682	375.0	3.0	3	0.8660254037844386	0.8660254037844386
1599589518.287445	1599589518.287445	376.0	0.0	0	0	0.5
1599589518.7741084	1599589518.7741084	377.0	6.0	6	1.224744871391589	1.224744871391589
1599589519.290002	1599589519.290002	378.0	3.0	3	0.8660254037844386	0.8660254037844386
1599589519.7985625	1599589519.7985625	379.0	5.0	5	1.118033988749895	1.118033988749895
1599589520.3109322	1599589520.3109322	380.0	4.0	4	1.0	1.0
1599589520.8247616	1599589520.8247616	381.0	2.0	2	0.7071067811865476	0.7071067811865476
1599589521.3387012	1599589521.3387012	382.0	3.0	3	0.8660254037844386	0.8660254037844386
1599589521.8528655	1599589521.8528655	383.0	4.0	4	1.0	1.0
1599589522.3718204	1599589522.3718204	384.0	3.0	3	0.8660254037844386	0.8660254037844386
1599589522.9041681	1599589522.9041681	385.0	2.0	2	0.7071067811865476	0.7071067811865476
1599589523.415701	1599589523.415701	386.0	2.0	2	0.7071067811865476	0.7071067811865476
1599589523.9196646	1599589523.9196646	387.0	2.0	2	0.7071067811865476	0.7071067811865476
1599589524.431158	1599589524.431158	388.0	1.0	1	0.5	0.5
1599589524.9474924	1599589524.9474924	389.0	2.0	2	0.7071067811865476	0.7071067811865476
1599589525.4691138	1599589525.4691138	390.0	2.0	2	0.7071067811865476	0.7071067811865476
1599589525.9772499	1599589525.9772499	391.0	1.0	1	0.5	0.5
1599589526.5445356	1599589526.5445356	392.0	8.0	8	1.4142135623730951	1.4142135623730951
1599589527.0103762	1599589527.0103762	393.0	3.0	3	0.8660254037844386	0.8660254037844386
1599589527.5211387	1599589527.5211387	394.0	2.0	2	0.7071067811865476	0.7071067811865476
1599589528.0440648	1599589528.0440648	395.0	2.0	2	0.7071067811865476	0.7071067811865476
1599589528.5569532	1599589528.5569532	396.0	2.0	2	0.7071067811865476	0.7071067811865476
1599589529.0801885	1599589529.0801885	397.0	3.0	3	0.8660254037844386	0.8660254037844386
1599589529.6577668	1599589529.6577668	398.0	1.0	1	0.5	0.5
1599589530.2211914	1599589530.2211914	399.0	3.0	3	0.8660254037844386	0.8660254037844386
1599589530.786468	1599589530.786468	400.0	4.0	4	1.0	1.0
1599589531.3611948	1599589531.3611948	401.0	2.0	2	0.7071067811865476	0.7071067811865476
1599589531.9208212	1599589531.9208212	402.0	1.0	1	0.5	0.5
1599589532.4893348	1599589532.4893348	403.0	1.0	1	0.5	0.5
1599589533.0622542	1599589533.0622542	404.0	2.0	2	0.7071067811865476	0.7071067811865476
1599589533.6145308	1599589533.6145308	405.0	3.0	3	0.8660254037844386	0.8660254037844386
1599589534.1855576	1599589534.1855576	406.0	6.0	6	1.224744871391589	1.224744871391589
1599589534.7616348	1599589534.7616348	407.0	3.0	3	0.8660254037844386	0.8660254037844386
1599589535.314375	1599589535.314375	408.0	2.0	2	0.7071067811865476	0.7071067811865476
1599589535.882467	1599589535.882467	409.0	4.0	4	1.0	1.0
1599589536.4580297	1599589536.4580297	410.0	4.0	4	1.0	1.0
1599589537.0126324	1599589537.0126324	411.0	3.0	3	0.8660254037844386	0.8660254037844386
1599589537.589878	1599589537.589878	412.0	1.0	1	0.5	0.5
1599589538.1601357	1599589538.1601357	413.0	4.0	4	1.0	1.0
1599589538.715474	1599589538.715474	414.0	2.0	2	0.7071067811865476	0.7071067811865476
1599589539.2831428	1599589539.2831428	415.0	9.0	9	1.5	1.5
1599589539.8617392	1599589539.8617392	416.0	3.0	3	0.8660254037844386	0.8660254037844386
1599589540.4292364	1599589540.4292364	417.0	2.0	2	0.7071067811865476	0.7071067811865476
1599589541.052512	1599589541.052512	418.0	2.0	2	0.7071067811865476	0.7071067811865476
1599589541.6804483	1599589541.6804483	419.0	3.0	3	0.8660254037844386	0.8660254037844386
1599589542.3011377	1599589542.3011377	420.0	4.0	4	1.0	1.0
1599589542.933669	1599589542.933669	421.0	4.0	4	1.0	1.0
1599589543.5507886	1599589543.5507886	422.0	8.0	8	1.4142135623730951	1.4142135623730951
1599589544.1792645	1599589544.1792645	423.0	4.0	4	1.0	1.0
1599589544.790539	1599589544.790539	424.0	5.0	5	1.118033988749895	1.118033988749895
1599589545.4147866	1599589545.4147866	425.0	4.0	4	1.0	1.0
1599589546.0496826	1599589546.0496826	426.0	3.0	3	0.8660254037844386	0.8660254037844386
1599589546.667934	1599589546.667934	427.0	5.0	5	1.118033988749895	1.118033988749895
1599589547.2978575	1599589547.2978575	428.0	3.0	3	0.8660254037844386	0.8660254037844386
1599589547.9219391	1599589547.9219391	429.0	4.0	4	1.0	1.0
1599589548.5346785	1599589548.5346785	430.0	4.0	4	1.0	1.0
1599589549.36639	1599589549.36639	431.0	4.0	4	1.0	1.0
1599589549.7908077	1599589549.7908077	432.0	6.0	6	1.224744871391589	1.224744871391589
1599589550.4177108	1599589550.4177108	433.0	6.0	6	1.224744871391589	1.224744871391589
1599589551.034449	1599589551.034449	434.0	4.0	4	1.0	1.0
1599589551.6591158	1599589551.6591158	435.0	9.0	9	1.5	1.5
1599589552.2821271	1599589552.2821271	436.0	6.0	6	1.224744871391589	1.224744871391589
1599589552.9236968	1599589552.9236968	437.0	5.0	5	1.118033988749895	1.118033988749895
1599589553.6153283	1599589553.6153283	438.0	5.0	5	1.118033988749895	1.118033988749895
1599589554.3089738	1599589554.3089738	439.0	3.0	3	0.8660254037844386	0.8660254037844386
1599589554.980883	1599589554.980883	440.0	2.0	2	0.7071067811865476	0.7071067811865476
1599589555.6673229	1599589555.6673229	441.0	6.0	6	1.224744871391589	1.224744871391589
1599589556.3521914	1599589556.3521914	442.0	6.0	6	1.224744871391589	1.224744871391589
1599589557.042011	1599589557.042011	443.0	5.0	5	1.118033988749895	1.118033988749895
1599589557.7239654	1599589557.7239654	444.0	2.0	2	0.7071067811865476	0.7071067811865476
1599589558.39534	1599589558.39534	445.0	4.0	4	1.0	1.0
1599589559.0922832	1599589559.0922832	446.0	3.0	3	0.8660254037844386	0.8660254037844386
1599589559.77525	1599589559.77525	447.0	0.0	0	0	0.5
1599589560.472306	1599589560.472306	448.0	9.0	9	1.5	1.5
1599589561.1412208	1599589561.1412208	449.0	5.0	5	1.118033988749895	1.118033988749895
1599589561.8387873	1599589561.8387873	450.0	5.0	5	1.118033988749895	1.118033988749895
1599589562.5267308	1599589562.5267308	451.0	4.0	4	1.0	1.0
1599589563.20475	1599589563.20475	452.0	4.0	4	1.0	1.0
1599589563.8866608	1599589563.8866608	453.0	5.0	5	1.118033988749895	1.118033988749895
1599589564.5718634	1599589564.5718634	454.0	5.0	5	1.118033988749895	1.118033988749895
1599589565.2718859	1599589565.2718859	455.0	6.0	6	1.224744871391589	1.224744871391589
1599589565.956016	1599589565.956016	456.0	10.0	10	1.5811388300841898	1.5811388300841898
1599589566.6129236	1599589566.6129236	457.0	3.0	3	0.8660254037844386	0.8660254037844386
1599589567.2350678	1599589567.2350678	458.0	9.0	9	1.5	1.5
1599589567.847602	1599589567.847602	459.0	8.0	8	1.4142135623730951	1.4142135623730951
1599589568.465253	1599589568.465253	460.0	3.0	3	0.8660254037844386	0.8660254037844386
1599589569.0906084	1599589569.0906084	461.0	2.0	2	0.7071067811865476	0.7071067811865476
1599589569.7289462	1599589569.7289462	462.0	5.0	5	1.118033988749895	1.118033988749895
1599589570.320498	1599589570.320498	463.0	1.0	1	0.5	0.5
1599589570.9446309	1599589570.9446309	464.0	6.0	6	1.224744871391589	1.224744871391589