# <?xml version="1.0" ?>
# <DataFileHeader>
#   <Variables>
#     <Element name="PulseProgram" type="dict">
#       <Element name="PulseProgram" type="str">C:/Users/ions/Documents/IonControl/project_dir/QuditLab/config/PulseProgramsPlus/Ablation_NeutralFluorescence.ppp</Element>
#       <Element name="NULL" type="Quantity">0</Element>
#       <Element name="FFFFFFFF" type="Quantity">18446744073709551615</Element>
#       <Element name="INTERRUPT_EXITCODE" type="Quantity">18446198715942174720</Element>
#       <Element name="InitializationShutter" type="int">5154</Element>
#       <Element name="NaturalAblation_mask" type="int">256</Element>
#       <Element name="NaturalAblation" type="int">256</Element>
#       <Element name="EndShutter" type="int">5154</Element>
#       <Element name="ShutterDelayTime" type="Quantity">0.5 s</Element>
#       <Element name="WindowStartTime" type="Quantity">145 us</Element>
#       <Element name="DetectTime" type="Quantity">20 us</Element>
#       <Element name="DummyVar" type="int">0</Element>
#       <Element name="experiments" type="int">1</Element>
#       <Element name="DetectCounters" type="int">1</Element>
#       <Element name="endLabel" type="Quantity">18446744073709551615</Element>
#       <Element name="experimentsleft" type="Quantity">100</Element>
#       <Element name="currentexperiment" type="Quantity">0</Element>
#       <Element name="inlinevar_1" type="Quantity">1</Element>
#     </Element>
#     <Element name="Scan" type="dict">
#       <Element name="scanParameter" type="str">DummyVar</Element>
#       <Element name="scanTarget" type="str">Internal</Element>
#       <Element name="scantype" type="int">0</Element>
#       <Element name="scanMode" type="int">0</Element>
#       <Element name="xUnit" type="str"></Element>
#       <Element name="xExpression" type="str"></Element>
#       <Element name="loadPP" type="bool">True</Element>
#       <Element name="loadPPName" type="str">Ablation_NeutralFluorescence_Rad.ppp</Element>
#       <Element name="parallelInternalScanParameter" type="str">None</Element>
#     </Element>
#     <ColumnSpec>timeTickFirst, timeTickLast, x, PMT Count, PMT Count_raw, PMT Count_bottom, PMT Count_top</ColumnSpec>
#     <Element name="comment" type="str"></Element>
#     <Element name="lastDataAquired" type="datetime">2020-09-08 19:23:58.632662+00:00</Element>
#     <Element name="name" type="str"></Element>
#     <Element name="traceCreation" type="datetime">2020-09-08 19:19:04.513806+00:00</Element>
#     <Element name="traceFinalized" type="datetime">2020-09-08 19:23:58.638434+00:00</Element>
#     <TracePlottingList>
#       <TracePlotting _bottomColumn="PMT Count_bottom" _filtColumn="None" _fitFunction="None" _heightColumn="height" _rawColumn="PMT Count_raw" _topColumn="PMT Count_top" _xColumn="x" _yColumn="PMT Count" fill="True" name="PMT Count" properties="&lt;trace.PlottedTrace.PlottedTraceProperties object at 0x000002A984A66E10&gt;" style="0" type="0" windowName="Scan Data" xAxisLabel="DummyVar" xAxisUnit="" yAxisLabel="None">
#         <PlottedTraceProperties averageSameX="False" averageType="0" combinePoints="0"/>
#       </TracePlotting>
#     </TracePlottingList>
#   </Variables>
# </DataFileHeader>
1599592743.4116008	1599592743.4116008	1.0	5.0	5	1.118033988749895	1.118033988749895
1599592744.5128155	1599592744.5128155	2.0	4.0	4	1.0	1.0
1599592745.6896634	1599592745.6896634	3.0	2.0	2	0.7071067811865476	0.7071067811865476
1599592745.8413322	1599592745.8413322	4.0	6.0	6	1.224744871391589	1.224744871391589
1599592745.8669765	1599592745.8669765	5.0	7.0	7	1.3228756555322954	1.3228756555322954
1599592746.2579494	1599592746.2579494	6.0	8.0	8	1.4142135623730951	1.4142135623730951
1599592746.7211428	1599592746.7211428	7.0	5.0	5	1.118033988749895	1.118033988749895
1599592747.2018466	1599592747.2018466	8.0	4.0	4	1.0	1.0
1599592747.6610346	1599592747.6610346	9.0	3.0	3	0.8660254037844386	0.8660254037844386
1599592748.1554923	1599592748.1554923	10.0	2.0	2	0.7071067811865476	0.7071067811865476
1599592748.5958512	1599592748.5958512	11.0	7.0	7	1.3228756555322954	1.3228756555322954
1599592749.017138	1599592749.017138	12.0	4.0	4	1.0	1.0
1599592749.4397953	1599592749.4397953	13.0	2.0	2	0.7071067811865476	0.7071067811865476
1599592749.8576963	1599592749.8576963	14.0	8.0	8	1.4142135623730951	1.4142135623730951
1599592750.2867107	1599592750.2867107	15.0	3.0	3	0.8660254037844386	0.8660254037844386
1599592750.7098174	1599592750.7098174	16.0	3.0	3	0.8660254037844386	0.8660254037844386
1599592751.138124	1599592751.138124	17.0	4.0	4	1.0	1.0
1599592751.5545216	1599592751.5545216	18.0	4.0	4	1.0	1.0
1599592751.9846423	1599592751.9846423	19.0	1.0	1	0.5	0.5
1599592752.4025483	1599592752.4025483	20.0	5.0	5	1.118033988749895	1.118033988749895
1599592752.8516977	1599592752.8516977	21.0	10.0	10	1.5811388300841898	1.5811388300841898
1599592753.2472548	1599592753.2472548	22.0	3.0	3	0.8660254037844386	0.8660254037844386
1599592753.6723328	1599592753.6723328	23.0	5.0	5	1.118033988749895	1.118033988749895
1599592754.0966418	1599592754.0966418	24.0	6.0	6	1.224744871391589	1.224744871391589
1599592754.5198948	1599592754.5198948	25.0	2.0	2	0.7071067811865476	0.7071067811865476
1599592754.9425538	1599592754.9425538	26.0	2.0	2	0.7071067811865476	0.7071067811865476
1599592755.3712382	1599592755.3712382	27.0	2.0	2	0.7071067811865476	0.7071067811865476
1599592755.790617	1599592755.790617	28.0	3.0	3	0.8660254037844386	0.8660254037844386
1599592756.2196527	1599592756.2196527	29.0	3.0	3	0.8660254037844386	0.8660254037844386
1599592756.640723	1599592756.640723	30.0	3.0	3	0.8660254037844386	0.8660254037844386
1599592757.0495734	1599592757.0495734	31.0	1.0	1	0.5	0.5
1599592757.4288704	1599592757.4288704	32.0	2.0	2	0.7071067811865476	0.7071067811865476
1599592757.8103826	1599592757.8103826	33.0	4.0	4	1.0	1.0
1599592758.1848748	1599592758.1848748	34.0	2.0	2	0.7071067811865476	0.7071067811865476
1599592758.5705502	1599592758.5705502	35.0	2.0	2	0.7071067811865476	0.7071067811865476
1599592758.948186	1599592758.948186	36.0	2.0	2	0.7071067811865476	0.7071067811865476
1599592759.33473	1599592759.33473	37.0	4.0	4	1.0	1.0
1599592759.7218344	1599592759.7218344	38.0	3.0	3	0.8660254037844386	0.8660254037844386
1599592760.0956738	1599592760.0956738	39.0	4.0	4	1.0	1.0
1599592760.4784842	1599592760.4784842	40.0	4.0	4	1.0	1.0
1599592760.8600605	1599592760.8600605	41.0	4.0	4	1.0	1.0
1599592761.2440069	1599592761.2440069	42.0	5.0	5	1.118033988749895	1.118033988749895
1599592761.6181045	1599592761.6181045	43.0	3.0	3	0.8660254037844386	0.8660254037844386
1599592761.9990547	1599592761.9990547	44.0	5.0	5	1.118033988749895	1.118033988749895
1599592762.3881135	1599592762.3881135	45.0	2.0	2	0.7071067811865476	0.7071067811865476
1599592762.7685547	1599592762.7685547	46.0	4.0	4	1.0	1.0
1599592763.144819	1599592763.144819	47.0	1.0	1	0.5	0.5
1599592763.5256085	1599592763.5256085	48.0	1.0	1	0.5	0.5
1599592763.9118547	1599592763.9118547	49.0	5.0	5	1.118033988749895	1.118033988749895
1599592764.2918477	1599592764.2918477	50.0	5.0	5	1.118033988749895	1.118033988749895
1599592764.6829436	1599592764.6829436	51.0	7.0	7	1.3228756555322954	1.3228756555322954
1599592765.1106195	1599592765.1106195	52.0	3.0	3	0.8660254037844386	0.8660254037844386
1599592765.5456085	1599592765.5456085	53.0	2.0	2	0.7071067811865476	0.7071067811865476
1599592765.9495926	1599592765.9495926	54.0	4.0	4	1.0	1.0
1599592766.3678708	1599592766.3678708	55.0	5.0	5	1.118033988749895	1.118033988749895
1599592766.787221	1599592766.787221	56.0	2.0	2	0.7071067811865476	0.7071067811865476
1599592767.2054133	1599592767.2054133	57.0	2.0	2	0.7071067811865476	0.7071067811865476
1599592767.628633	1599592767.628633	58.0	2.0	2	0.7071067811865476	0.7071067811865476
1599592768.0407739	1599592768.0407739	59.0	1.0	1	0.5	0.5
1599592768.4599545	1599592768.4599545	60.0	5.0	5	1.118033988749895	1.118033988749895
1599592768.8786156	1599592768.8786156	61.0	3.0	3	0.8660254037844386	0.8660254037844386
1599592769.2985458	1599592769.2985458	62.0	1.0	1	0.5	0.5
1599592769.7186782	1599592769.7186782	63.0	6.0	6	1.224744871391589	1.224744871391589
1599592770.1413352	1599592770.1413352	64.0	5.0	5	1.118033988749895	1.118033988749895
1599592770.557131	1599592770.557131	65.0	4.0	4	1.0	1.0
1599592770.980519	1599592770.980519	66.0	7.0	7	1.3228756555322954	1.3228756555322954
1599592771.3995757	1599592771.3995757	67.0	0.0	0	0	0.5
1599592771.8134882	1599592771.8134882	68.0	6.0	6	1.224744871391589	1.224744871391589
1599592772.233999	1599592772.233999	69.0	5.0	5	1.118033988749895	1.118033988749895
1599592772.66876	1599592772.66876	70.0	7.0	7	1.3228756555322954	1.3228756555322954
1599592773.0929399	1599592773.0929399	71.0	6.0	6	1.224744871391589	1.224744871391589
1599592773.552054	1599592773.552054	72.0	5.0	5	1.118033988749895	1.118033988749895
1599592774.0141098	1599592774.0141098	73.0	3.0	3	0.8660254037844386	0.8660254037844386
1599592774.4729102	1599592774.4729102	74.0	5.0	5	1.118033988749895	1.118033988749895
1599592774.937229	1599592774.937229	75.0	5.0	5	1.118033988749895	1.118033988749895
1599592775.4043694	1599592775.4043694	76.0	7.0	7	1.3228756555322954	1.3228756555322954
1599592775.8587112	1599592775.8587112	77.0	3.0	3	0.8660254037844386	0.8660254037844386
1599592776.3191895	1599592776.3191895	78.0	5.0	5	1.118033988749895	1.118033988749895
1599592776.7792675	1599592776.7792675	79.0	5.0	5	1.118033988749895	1.118033988749895
1599592777.2522826	1599592777.2522826	80.0	3.0	3	0.8660254037844386	0.8660254037844386
1599592777.705936	1599592777.705936	81.0	4.0	4	1.0	1.0
1599592778.1650655	1599592778.1650655	82.0	5.0	5	1.118033988749895	1.118033988749895
1599592778.6265411	1599592778.6265411	83.0	7.0	7	1.3228756555322954	1.3228756555322954
1599592779.0951536	1599592779.0951536	84.0	6.0	6	1.224744871391589	1.224744871391589
1599592779.5472298	1599592779.5472298	85.0	3.0	3	0.8660254037844386	0.8660254037844386
1599592780.0098956	1599592780.0098956	86.0	2.0	2	0.7071067811865476	0.7071067811865476
1599592780.4814575	1599592780.4814575	87.0	4.0	4	1.0	1.0
1599592780.9339938	1599592780.9339938	88.0	7.0	7	1.3228756555322954	1.3228756555322954
1599592781.3947144	1599592781.3947144	89.0	9.0	9	1.5	1.5
1599592781.8644009	1599592781.8644009	90.0	5.0	5	1.118033988749895	1.118033988749895
1599592782.332629	1599592782.332629	91.0	7.0	7	1.3228756555322954	1.3228756555322954
1599592782.8511703	1599592782.8511703	92.0	5.0	5	1.118033988749895	1.118033988749895
1599592783.354745	1599592783.354745	93.0	3.0	3	0.8660254037844386	0.8660254037844386
1599592783.8683069	1599592783.8683069	94.0	6.0	6	1.224744871391589	1.224744871391589
1599592784.3638465	1599592784.3638465	95.0	9.0	9	1.5	1.5
1599592784.88554	1599592784.88554	96.0	10.0	10	1.5811388300841898	1.5811388300841898
1599592785.3797548	1599592785.3797548	97.0	6.0	6	1.224744871391589	1.224744871391589
1599592785.8953981	1599592785.8953981	98.0	6.0	6	1.224744871391589	1.224744871391589
1599592786.3931882	1599592786.3931882	99.0	6.0	6	1.224744871391589	1.224744871391589
1599592786.903878	1599592786.903878	100.0	11.0	11	1.6583123951777	1.6583123951777
1599592787.4175348	1599592787.4175348	101.0	7.0	7	1.3228756555322954	1.3228756555322954
1599592787.9322033	1599592787.9322033	102.0	6.0	6	1.224744871391589	1.224744871391589
1599592788.4320323	1599592788.4320323	103.0	10.0	10	1.5811388300841898	1.5811388300841898
1599592788.9304333	1599592788.9304333	104.0	4.0	4	1.0	1.0
1599592789.4512565	1599592789.4512565	105.0	6.0	6	1.224744871391589	1.224744871391589
1599592789.9520087	1599592789.9520087	106.0	2.0	2	0.7071067811865476	0.7071067811865476
1599592790.4647512	1599592790.4647512	107.0	9.0	9	1.5	1.5
1599592791.0485325	1599592791.0485325	108.0	3.0	3	0.8660254037844386	0.8660254037844386
1599592791.5011864	1599592791.5011864	109.0	7.0	7	1.3228756555322954	1.3228756555322954
1599592791.9838114	1599592791.9838114	110.0	5.0	5	1.118033988749895	1.118033988749895
1599592792.5105917	1599592792.5105917	111.0	5.0	5	1.118033988749895	1.118033988749895
1599592793.0763505	1599592793.0763505	112.0	6.0	6	1.224744871391589	1.224744871391589
1599592793.6347992	1599592793.6347992	113.0	4.0	4	1.0	1.0
1599592794.1845002	1599592794.1845002	114.0	3.0	3	0.8660254037844386	0.8660254037844386
1599592794.7358654	1599592794.7358654	115.0	3.0	3	0.8660254037844386	0.8660254037844386
1599592795.3100421	1599592795.3100421	116.0	2.0	2	0.7071067811865476	0.7071067811865476
1599592795.8623805	1599592795.8623805	117.0	5.0	5	1.118033988749895	1.118033988749895
1599592796.4243746	1599592796.4243746	118.0	4.0	4	1.0	1.0
1599592796.9746263	1599592796.9746263	119.0	5.0	5	1.118033988749895	1.118033988749895
1599592797.528622	1599592797.528622	120.0	1.0	1	0.5	0.5
1599592798.0966384	1599592798.0966384	121.0	2.0	2	0.7071067811865476	0.7071067811865476
1599592798.6488538	1599592798.6488538	122.0	2.0	2	0.7071067811865476	0.7071067811865476
1599592799.2197597	1599592799.2197597	123.0	1.0	1	0.5	0.5
1599592799.7627368	1599592799.7627368	124.0	3.0	3	0.8660254037844386	0.8660254037844386
1599592800.332131	1599592800.332131	125.0	2.0	2	0.7071067811865476	0.7071067811865476
1599592800.8772094	1599592800.8772094	126.0	3.0	3	0.8660254037844386	0.8660254037844386
1599592801.825676	1599592801.825676	127.0	4.0	4	1.0	1.0
1599592802.0027375	1599592802.0027375	128.0	3.0	3	0.8660254037844386	0.8660254037844386
1599592802.5609083	1599592802.5609083	129.0	7.0	7	1.3228756555322954	1.3228756555322954
1599592803.1310122	1599592803.1310122	130.0	2.0	2	0.7071067811865476	0.7071067811865476
1599592803.702659	1599592803.702659	131.0	3.0	3	0.8660254037844386	0.8660254037844386
1599592804.3307517	1599592804.3307517	132.0	2.0	2	0.7071067811865476	0.7071067811865476
1599592804.92783	1599592804.92783	133.0	3.0	3	0.8660254037844386	0.8660254037844386
1599592805.5452425	1599592805.5452425	134.0	8.0	8	1.4142135623730951	1.4142135623730951
1599592806.152444	1599592806.152444	135.0	4.0	4	1.0	1.0
1599592806.7730298	1599592806.7730298	136.0	3.0	3	0.8660254037844386	0.8660254037844386
1599592807.38078	1599592807.38078	137.0	2.0	2	0.7071067811865476	0.7071067811865476
1599592808.005682	1599592808.005682	138.0	1.0	1	0.5	0.5
1599592808.603546	1599592808.603546	139.0	2.0	2	0.7071067811865476	0.7071067811865476
1599592809.2291653	1599592809.2291653	140.0	1.0	1	0.5	0.5
1599592809.8377042	1599592809.8377042	141.0	4.0	4	1.0	1.0
1599592810.4502892	1599592810.4502892	142.0	6.0	6	1.224744871391589	1.224744871391589
1599592811.069588	1599592811.069588	143.0	4.0	4	1.0	1.0
1599592811.6846528	1599592811.6846528	144.0	2.0	2	0.7071067811865476	0.7071067811865476
1599592812.29265	1599592812.29265	145.0	5.0	5	1.118033988749895	1.118033988749895
1599592812.9231868	1599592812.9231868	146.0	5.0	5	1.118033988749895	1.118033988749895
1599592813.5268016	1599592813.5268016	147.0	3.0	3	0.8660254037844386	0.8660254037844386
1599592814.1339796	1599592814.1339796	148.0	1.0	1	0.5	0.5
1599592814.7473116	1599592814.7473116	149.0	2.0	2	0.7071067811865476	0.7071067811865476
1599592815.3667667	1599592815.3667667	150.0	6.0	6	1.224744871391589	1.224744871391589
1599592815.999891	1599592815.999891	151.0	5.0	5	1.118033988749895	1.118033988749895
1599592816.9212651	1599592816.9212651	152.0	6.0	6	1.224744871391589	1.224744871391589
1599592817.353152	1599592817.353152	153.0	3.0	3	0.8660254037844386	0.8660254037844386
1599592818.0480087	1599592818.0480087	154.0	4.0	4	1.0	1.0
1599592818.7156549	1599592818.7156549	155.0	4.0	4	1.0	1.0
1599592819.3818612	1599592819.3818612	156.0	3.0	3	0.8660254037844386	0.8660254037844386
1599592820.071012	1599592820.071012	157.0	1.0	1	0.5	0.5
1599592820.7417212	1599592820.7417212	158.0	4.0	4	1.0	1.0
1599592821.4108129	1599592821.4108129	159.0	3.0	3	0.8660254037844386	0.8660254037844386
1599592822.0879798	1599592822.0879798	160.0	2.0	2	0.7071067811865476	0.7071067811865476
1599592822.7621486	1599592822.7621486	161.0	2.0	2	0.7071067811865476	0.7071067811865476
1599592823.4431453	1599592823.4431453	162.0	0.0	0	0	0.5
1599592824.1140916	1599592824.1140916	163.0	3.0	3	0.8660254037844386	0.8660254037844386
1599592824.7830899	1599592824.7830899	164.0	3.0	3	0.8660254037844386	0.8660254037844386
1599592825.460311	1599592825.460311	165.0	3.0	3	0.8660254037844386	0.8660254037844386
1599592826.1434388	1599592826.1434388	166.0	2.0	2	0.7071067811865476	0.7071067811865476
1599592826.8136637	1599592826.8136637	167.0	7.0	7	1.3228756555322954	1.3228756555322954
1599592827.514542	1599592827.514542	168.0	4.0	4	1.0	1.0
1599592828.1761606	1599592828.1761606	169.0	2.0	2	0.7071067811865476	0.7071067811865476
1599592828.842784	1599592828.842784	170.0	3.0	3	0.8660254037844386	0.8660254037844386
1599592829.4819586	1599592829.4819586	171.0	3.0	3	0.8660254037844386	0.8660254037844386
1599592830.0893872	1599592830.0893872	172.0	3.0	3	0.8660254037844386	0.8660254037844386
1599592830.6963527	1599592830.6963527	173.0	4.0	4	1.0	1.0
1599592831.3344164	1599592831.3344164	174.0	3.0	3	0.8660254037844386	0.8660254037844386
1599592831.9248073	1599592831.9248073	175.0	6.0	6	1.224744871391589	1.224744871391589
1599592832.6328933	1599592832.6328933	176.0	1.0	1	0.5	0.5
1599592833.1360297	1599592833.1360297	177.0	3.0	3	0.8660254037844386	0.8660254037844386
1599592833.7365942	1599592833.7365942	178.0	5.0	5	1.118033988749895	1.118033988749895
1599592834.3543653	1599592834.3543653	179.0	5.0	5	1.118033988749895	1.118033988749895
1599592834.9599352	1599592834.9599352	180.0	6.0	6	1.224744871391589	1.224744871391589
1599592835.5742154	1599592835.5742154	181.0	2.0	2	0.7071067811865476	0.7071067811865476
1599592836.1667533	1599592836.1667533	182.0	5.0	5	1.118033988749895	1.118033988749895
1599592836.7795067	1599592836.7795067	183.0	2.0	2	0.7071067811865476	0.7071067811865476
1599592837.3856902	1599592837.3856902	184.0	3.0	3	0.8660254037844386	0.8660254037844386
1599592838.0063808	1599592838.0063808	185.0	4.0	4	1.0	1.0
1599592838.6040869	1599592838.6040869	186.0	2.0	2	0.7071067811865476	0.7071067811865476
1599592839.2116032	1599592839.2116032	187.0	4.0	4	1.0	1.0
1599592839.8159025	1599592839.8159025	188.0	3.0	3	0.8660254037844386	0.8660254037844386
1599592840.4236856	1599592840.4236856	189.0	1.0	1	0.5	0.5
1599592841.0399106	1599592841.0399106	190.0	1.0	1	0.5	0.5
1599592841.6163387	1599592841.6163387	191.0	1.0	1	0.5	0.5
1599592842.170655	1599592842.170655	192.0	7.0	7	1.3228756555322954	1.3228756555322954
1599592842.7113605	1599592842.7113605	193.0	6.0	6	1.224744871391589	1.224744871391589
1599592843.260529	1599592843.260529	194.0	4.0	4	1.0	1.0
1599592843.8125582	1599592843.8125582	195.0	3.0	3	0.8660254037844386	0.8660254037844386
1599592844.3559065	1599592844.3559065	196.0	5.0	5	1.118033988749895	1.118033988749895
1599592844.8954058	1599592844.8954058	197.0	3.0	3	0.8660254037844386	0.8660254037844386
1599592845.46217	1599592845.46217	198.0	4.0	4	1.0	1.0
1599592845.995672	1599592845.995672	199.0	3.0	3	0.8660254037844386	0.8660254037844386
1599592846.536098	1599592846.536098	200.0	5.0	5	1.118033988749895	1.118033988749895
1599592847.1016924	1599592847.1016924	201.0	4.0	4	1.0	1.0
1599592847.630329	1599592847.630329	202.0	8.0	8	1.4142135623730951	1.4142135623730951
1599592848.1823142	1599592848.1823142	203.0	5.0	5	1.118033988749895	1.118033988749895
1599592848.7365294	1599592848.7365294	204.0	2.0	2	0.7071067811865476	0.7071067811865476
1599592849.2830744	1599592849.2830744	205.0	3.0	3	0.8660254037844386	0.8660254037844386
1599592849.8305433	1599592849.8305433	206.0	8.0	8	1.4142135623730951	1.4142135623730951
1599592850.3790762	1599592850.3790762	207.0	2.0	2	0.7071067811865476	0.7071067811865476
1599592850.929493	1599592850.929493	208.0	3.0	3	0.8660254037844386	0.8660254037844386
1599592851.4696786	1599592851.4696786	209.0	5.0	5	1.118033988749895	1.118033988749895
1599592852.0220416	1599592852.0220416	210.0	6.0	6	1.224744871391589	1.224744871391589
1599592852.5437553	1599592852.5437553	211.0	5.0	5	1.118033988749895	1.118033988749895
1599592853.0290306	1599592853.0290306	212.0	4.0	4	1.0	1.0
1599592853.535659	1599592853.535659	213.0	8.0	8	1.4142135623730951	1.4142135623730951
1599592854.0176463	1599592854.0176463	214.0	5.0	5	1.118033988749895	1.118033988749895
1599592854.508709	1599592854.508709	215.0	7.0	7	1.3228756555322954	1.3228756555322954
1599592854.9949067	1599592854.9949067	216.0	4.0	4	1.0	1.0
1599592855.4926426	1599592855.4926426	217.0	5.0	5	1.118033988749895	1.118033988749895
1599592855.986152	1599592855.986152	218.0	7.0	7	1.3228756555322954	1.3228756555322954
1599592856.4765697	1599592856.4765697	219.0	8.0	8	1.4142135623730951	1.4142135623730951
1599592856.9701016	1599592856.9701016	220.0	7.0	7	1.3228756555322954	1.3228756555322954
1599592857.4616783	1599592857.4616783	221.0	4.0	4	1.0	1.0
1599592857.9591453	1599592857.9591453	222.0	5.0	5	1.118033988749895	1.118033988749895
1599592858.4452128	1599592858.4452128	223.0	3.0	3	0.8660254037844386	0.8660254037844386
1599592858.9332323	1599592858.9332323	224.0	1.0	1	0.5	0.5
1599592859.435104	1599592859.435104	225.0	8.0	8	1.4142135623730951	1.4142135623730951
1599592859.919276	1599592859.919276	226.0	4.0	4	1.0	1.0
1599592860.4139497	1599592860.4139497	227.0	4.0	4	1.0	1.0
1599592860.904654	1599592860.904654	228.0	4.0	4	1.0	1.0
1599592861.3971627	1599592861.3971627	229.0	1.0	1	0.5	0.5
1599592861.8917933	1599592861.8917933	230.0	4.0	4	1.0	1.0
1599592862.359074	1599592862.359074	231.0	7.0	7	1.3228756555322954	1.3228756555322954
1599592862.8087134	1599592862.8087134	232.0	8.0	8	1.4142135623730951	1.4142135623730951
1599592863.247378	1599592863.247378	233.0	3.0	3	0.8660254037844386	0.8660254037844386
1599592863.6914864	1599592863.6914864	234.0	6.0	6	1.224744871391589	1.224744871391589
1599592864.1373982	1599592864.1373982	235.0	7.0	7	1.3228756555322954	1.3228756555322954
1599592864.5795372	1599592864.5795372	236.0	2.0	2	0.7071067811865476	0.7071067811865476
1599592865.026203	1599592865.026203	237.0	6.0	6	1.224744871391589	1.224744871391589
1599592865.465846	1599592865.465846	238.0	6.0	6	1.224744871391589	1.224744871391589
1599592865.9066396	1599592865.9066396	239.0	2.0	2	0.7071067811865476	0.7071067811865476
1599592866.3459435	1599592866.3459435	240.0	2.0	2	0.7071067811865476	0.7071067811865476
1599592866.7916765	1599592866.7916765	241.0	0.0	0	0	0.5
1599592867.2324018	1599592867.2324018	242.0	0.0	0	0	0.5
1599592867.678491	1599592867.678491	243.0	2.0	2	0.7071067811865476	0.7071067811865476
1599592868.120996	1599592868.120996	244.0	5.0	5	1.118033988749895	1.118033988749895
1599592868.5626268	1599592868.5626268	245.0	0.0	0	0	0.5
1599592869.0116885	1599592869.0116885	246.0	1.0	1	0.5	0.5
1599592869.452454	1599592869.452454	247.0	4.0	4	1.0	1.0
1599592869.9083035	1599592869.9083035	248.0	3.0	3	0.8660254037844386	0.8660254037844386
1599592870.3358436	1599592870.3358436	249.0	5.0	5	1.118033988749895	1.118033988749895
1599592871.156083	1599592871.156083	250.0	4.0	4	1.0	1.0
1599592871.2141335	1599592871.2141335	251.0	2.0	2	0.7071067811865476	0.7071067811865476
1599592871.6105106	1599592871.6105106	252.0	5.0	5	1.118033988749895	1.118033988749895
1599592872.010835	1599592872.010835	253.0	4.0	4	1.0	1.0
1599592872.4156597	1599592872.4156597	254.0	4.0	4	1.0	1.0
1599592872.82275	1599592872.82275	255.0	3.0	3	0.8660254037844386	0.8660254037844386
1599592873.2069216	1599592873.2069216	256.0	0.0	0	0	0.5
1599592873.6038392	1599592873.6038392	257.0	1.0	1	0.5	0.5
1599592874.0075498	1599592874.0075498	258.0	0.0	0	0	0.5
1599592874.4043956	1599592874.4043956	259.0	5.0	5	1.118033988749895	1.118033988749895
1599592874.8064194	1599592874.8064194	260.0	5.0	5	1.118033988749895	1.118033988749895
1599592875.1988974	1599592875.1988974	261.0	3.0	3	0.8660254037844386	0.8660254037844386
1599592875.6040335	1599592875.6040335	262.0	4.0	4	1.0	1.0
1599592875.9996047	1599592875.9996047	263.0	2.0	2	0.7071067811865476	0.7071067811865476
1599592876.3998005	1599592876.3998005	264.0	4.0	4	1.0	1.0
1599592876.7983644	1599592876.7983644	265.0	0.0	0	0	0.5
1599592877.208128	1599592877.208128	266.0	3.0	3	0.8660254037844386	0.8660254037844386
1599592877.5936358	1599592877.5936358	267.0	4.0	4	1.0	1.0
1599592877.9962378	1599592877.9962378	268.0	5.0	5	1.118033988749895	1.118033988749895
1599592878.405076	1599592878.405076	269.0	5.0	5	1.118033988749895	1.118033988749895
1599592878.7884626	1599592878.7884626	270.0	3.0	3	0.8660254037844386	0.8660254037844386
1599592879.1809988	1599592879.1809988	271.0	2.0	2	0.7071067811865476	0.7071067811865476
1599592879.5450172	1599592879.5450172	272.0	7.0	7	1.3228756555322954	1.3228756555322954
1599592879.8958936	1599592879.8958936	273.0	3.0	3	0.8660254037844386	0.8660254037844386
1599592880.258655	1599592880.258655	274.0	4.0	4	1.0	1.0
1599592880.6245337	1599592880.6245337	275.0	2.0	2	0.7071067811865476	0.7071067811865476
1599592880.97691	1599592880.97691	276.0	2.0	2	0.7071067811865476	0.7071067811865476
1599592881.3437026	1599592881.3437026	277.0	2.0	2	0.7071067811865476	0.7071067811865476
1599592881.691094	1599592881.691094	278.0	2.0	2	0.7071067811865476	0.7071067811865476
1599592882.053307	1599592882.053307	279.0	4.0	4	1.0	1.0
1599592882.408861	1599592882.408861	280.0	4.0	4	1.0	1.0
1599592882.7800999	1599592882.7800999	281.0	5.0	5	1.118033988749895	1.118033988749895
1599592883.1309886	1599592883.1309886	282.0	3.0	3	0.8660254037844386	0.8660254037844386
1599592883.4878354	1599592883.4878354	283.0	2.0	2	0.7071067811865476	0.7071067811865476
1599592883.849424	1599592883.849424	284.0	2.0	2	0.7071067811865476	0.7071067811865476
1599592884.2182634	1599592884.2182634	285.0	1.0	1	0.5	0.5
1599592884.578125	1599592884.578125	286.0	0.0	0	0	0.5
1599592884.9216661	1599592884.9216661	287.0	3.0	3	0.8660254037844386	0.8660254037844386
1599592885.283123	1599592885.283123	288.0	3.0	3	0.8660254037844386	0.8660254037844386
1599592885.6546123	1599592885.6546123	289.0	0.0	0	0	0.5
1599592886.002337	1599592886.002337	290.0	4.0	4	1.0	1.0
1599592886.3697772	1599592886.3697772	291.0	2.0	2	0.7071067811865476	0.7071067811865476
1599592886.7632155	1599592886.7632155	292.0	5.0	5	1.118033988749895	1.118033988749895
1599592887.1577914	1599592887.1577914	293.0	4.0	4	1.0	1.0
1599592887.5673978	1599592887.5673978	294.0	3.0	3	0.8660254037844386	0.8660254037844386
1599592887.9576223	1599592887.9576223	295.0	3.0	3	0.8660254037844386	0.8660254037844386
1599592888.342494	1599592888.342494	296.0	2.0	2	0.7071067811865476	0.7071067811865476
1599592888.7361386	1599592888.7361386	297.0	2.0	2	0.7071067811865476	0.7071067811865476
1599592889.1442876	1599592889.1442876	298.0	1.0	1	0.5	0.5
1599592889.5355706	1599592889.5355706	299.0	0.0	0	0	0.5
1599592889.923885	1599592889.923885	300.0	2.0	2	0.7071067811865476	0.7071067811865476
1599592890.3350494	1599592890.3350494	301.0	4.0	4	1.0	1.0
1599592890.729639	1599592890.729639	302.0	5.0	5	1.118033988749895	1.118033988749895
1599592891.116364	1599592891.116364	303.0	3.0	3	0.8660254037844386	0.8660254037844386
1599592891.5117671	1599592891.5117671	304.0	5.0	5	1.118033988749895	1.118033988749895
1599592891.9111524	1599592891.9111524	305.0	3.0	3	0.8660254037844386	0.8660254037844386
1599592892.3076735	1599592892.3076735	306.0	2.0	2	0.7071067811865476	0.7071067811865476
1599592892.698672	1599592892.698672	307.0	5.0	5	1.118033988749895	1.118033988749895
1599592893.0986025	1599592893.0986025	308.0	1.0	1	0.5	0.5
1599592893.488436	1599592893.488436	309.0	1.0	1	0.5	0.5
1599592893.8832843	1599592893.8832843	310.0	2.0	2	0.7071067811865476	0.7071067811865476
1599592894.2886555	1599592894.2886555	311.0	3.0	3	0.8660254037844386	0.8660254037844386
1599592894.7113025	1599592894.7113025	312.0	7.0	7	1.3228756555322954	1.3228756555322954
1599592895.1599033	1599592895.1599033	313.0	5.0	5	1.118033988749895	1.118033988749895
1599592895.6147816	1599592895.6147816	314.0	1.0	1	0.5	0.5
1599592896.0267997	1599592896.0267997	315.0	2.0	2	0.7071067811865476	0.7071067811865476
1599592896.4599543	1599592896.4599543	316.0	4.0	4	1.0	1.0
1599592896.8875	1599592896.8875	317.0	2.0	2	0.7071067811865476	0.7071067811865476
1599592897.3310902	1599592897.3310902	318.0	2.0	2	0.7071067811865476	0.7071067811865476
1599592897.7557945	1599592897.7557945	319.0	3.0	3	0.8660254037844386	0.8660254037844386
1599592898.1935756	1599592898.1935756	320.0	2.0	2	0.7071067811865476	0.7071067811865476
1599592898.6254234	1599592898.6254234	321.0	2.0	2	0.7071067811865476	0.7071067811865476
1599592899.0686307	1599592899.0686307	322.0	2.0	2	0.7071067811865476	0.7071067811865476
1599592899.5043826	1599592899.5043826	323.0	5.0	5	1.118033988749895	1.118033988749895
1599592899.9335017	1599592899.9335017	324.0	2.0	2	0.7071067811865476	0.7071067811865476
1599592900.3664353	1599592900.3664353	325.0	1.0	1	0.5	0.5
1599592900.8053823	1599592900.8053823	326.0	10.0	10	1.5811388300841898	1.5811388300841898
1599592901.236065	1599592901.236065	327.0	1.0	1	0.5	0.5
1599592901.6648502	1599592901.6648502	328.0	2.0	2	0.7071067811865476	0.7071067811865476
1599592902.1081982	1599592902.1081982	329.0	2.0	2	0.7071067811865476	0.7071067811865476
1599592902.5371785	1599592902.5371785	330.0	1.0	1	0.5	0.5
1599592902.9836745	1599592902.9836745	331.0	6.0	6	1.224744871391589	1.224744871391589
1599592903.459154	1599592903.459154	332.0	6.0	6	1.224744871391589	1.224744871391589
1599592903.938884	1599592903.938884	333.0	4.0	4	1.0	1.0
1599592904.409311	1599592904.409311	334.0	3.0	3	0.8660254037844386	0.8660254037844386
1599592904.8925602	1599592904.8925602	335.0	4.0	4	1.0	1.0
1599592905.3762548	1599592905.3762548	336.0	3.0	3	0.8660254037844386	0.8660254037844386
1599592905.8432045	1599592905.8432045	337.0	2.0	2	0.7071067811865476	0.7071067811865476
1599592906.3252945	1599592906.3252945	338.0	3.0	3	0.8660254037844386	0.8660254037844386
1599592906.807143	1599592906.807143	339.0	1.0	1	0.5	0.5
1599592907.2765658	1599592907.2765658	340.0	1.0	1	0.5	0.5
1599592907.7585833	1599592907.7585833	341.0	3.0	3	0.8660254037844386	0.8660254037844386
1599592908.2339761	1599592908.2339761	342.0	7.0	7	1.3228756555322954	1.3228756555322954
1599592908.7191417	1599592908.7191417	343.0	12.0	12	1.7320508075688772	1.7320508075688772
1599592909.1958702	1599592909.1958702	344.0	5.0	5	1.118033988749895	1.118033988749895
1599592909.6701477	1599592909.6701477	345.0	1.0	1	0.5	0.5
1599592910.1541002	1599592910.1541002	346.0	8.0	8	1.4142135623730951	1.4142135623730951
1599592910.6201282	1599592910.6201282	347.0	5.0	5	1.118033988749895	1.118033988749895
1599592911.1135333	1599592911.1135333	348.0	4.0	4	1.0	1.0
1599592911.5849252	1599592911.5849252	349.0	5.0	5	1.118033988749895	1.118033988749895
1599592912.0641825	1599592912.0641825	350.0	4.0	4	1.0	1.0
1599592912.5511956	1599592912.5511956	351.0	1.0	1	0.5	0.5
1599592913.0828567	1599592913.0828567	352.0	4.0	4	1.0	1.0
1599592913.5986462	1599592913.5986462	353.0	4.0	4	1.0	1.0
1599592914.1371589	1599592914.1371589	354.0	6.0	6	1.224744871391589	1.224744871391589
1599592914.6485562	1599592914.6485562	355.0	4.0	4	1.0	1.0
1599592915.1846676	1599592915.1846676	356.0	5.0	5	1.118033988749895	1.118033988749895
1599592915.6946533	1599592915.6946533	357.0	4.0	4	1.0	1.0
1599592916.224767	1599592916.224767	358.0	4.0	4	1.0	1.0
1599592916.7589443	1599592916.7589443	359.0	9.0	9	1.5	1.5
1599592917.28463	1599592917.28463	360.0	7.0	7	1.3228756555322954	1.3228756555322954
1599592917.801713	1599592917.801713	361.0	6.0	6	1.224744871391589	1.224744871391589
1599592918.3272943	1599592918.3272943	362.0	6.0	6	1.224744871391589	1.224744871391589
1599592918.8582544	1599592918.8582544	363.0	2.0	2	0.7071067811865476	0.7071067811865476
1599592919.3861527	1599592919.3861527	364.0	1.0	1	0.5	0.5
1599592919.9053884	1599592919.9053884	365.0	1.0	1	0.5	0.5
1599592920.440959	1599592920.440959	366.0	1.0	1	0.5	0.5
1599592920.9566185	1599592920.9566185	367.0	3.0	3	0.8660254037844386	0.8660254037844386
1599592921.4825194	1599592921.4825194	368.0	0.0	0	0	0.5
1599592922.002467	1599592922.002467	369.0	1.0	1	0.5	0.5
1599592922.5367348	1599592922.5367348	370.0	2.0	2	0.7071067811865476	0.7071067811865476
1599592923.0676184	1599592923.0676184	371.0	1.0	1	0.5	0.5
1599592923.6527908	1599592923.6527908	372.0	6.0	6	1.224744871391589	1.224744871391589
1599592924.2922938	1599592924.2922938	373.0	3.0	3	0.8660254037844386	0.8660254037844386
1599592924.8308022	1599592924.8308022	374.0	1.0	1	0.5	0.5
1599592925.3874815	1599592925.3874815	375.0	4.0	4	1.0	1.0
1599592925.9762347	1599592925.9762347	376.0	3.0	3	0.8660254037844386	0.8660254037844386
1599592926.5364094	1599592926.5364094	377.0	8.0	8	1.4142135623730951	1.4142135623730951
1599592927.1116521	1599592927.1116521	378.0	2.0	2	0.7071067811865476	0.7071067811865476
1599592927.6929433	1599592927.6929433	379.0	1.0	1	0.5	0.5
1599592928.2698112	1599592928.2698112	380.0	1.0	1	0.5	0.5
1599592928.8530576	1599592928.8530576	381.0	2.0	2	0.7071067811865476	0.7071067811865476
1599592929.4262533	1599592929.4262533	382.0	1.0	1	0.5	0.5
1599592930.007284	1599592930.007284	383.0	0.0	0	0	0.5
1599592930.5895433	1599592930.5895433	384.0	2.0	2	0.7071067811865476	0.7071067811865476
1599592931.1687315	1599592931.1687315	385.0	3.0	3	0.8660254037844386	0.8660254037844386
1599592931.7378342	1599592931.7378342	386.0	1.0	1	0.5	0.5
1599592932.32252	1599592932.32252	387.0	2.0	2	0.7071067811865476	0.7071067811865476
1599592932.8959396	1599592932.8959396	388.0	1.0	1	0.5	0.5
1599592933.4807143	1599592933.4807143	389.0	3.0	3	0.8660254037844386	0.8660254037844386
1599592934.1793718	1599592934.1793718	390.0	3.0	3	0.8660254037844386	0.8660254037844386
1599592934.6497207	1599592934.6497207	391.0	5.0	5	1.118033988749895	1.118033988749895
1599592935.294667	1599592935.294667	392.0	2.0	2	0.7071067811865476	0.7071067811865476
1599592935.928538	1599592935.928538	393.0	6.0	6	1.224744871391589	1.224744871391589
1599592936.5644104	1599592936.5644104	394.0	1.0	1	0.5	0.5
1599592937.1993127	1599592937.1993127	395.0	3.0	3	0.8660254037844386	0.8660254037844386
1599592937.8357515	1599592937.8357515	396.0	4.0	4	1.0	1.0
1599592938.4733984	1599592938.4733984	397.0	2.0	2	0.7071067811865476	0.7071067811865476
1599592939.1236534	1599592939.1236534	398.0	3.0	3	0.8660254037844386	0.8660254037844386
1599592939.7440972	1599592939.7440972	399.0	3.0	3	0.8660254037844386	0.8660254037844386
1599592940.3861327	1599592940.3861327	400.0	3.0	3	0.8660254037844386	0.8660254037844386
1599592941.0092642	1599592941.0092642	401.0	2.0	2	0.7071067811865476	0.7071067811865476
1599592941.6543262	1599592941.6543262	402.0	2.0	2	0.7071067811865476	0.7071067811865476
1599592942.285189	1599592942.285189	403.0	5.0	5	1.118033988749895	1.118033988749895
1599592942.924202	1599592942.924202	404.0	6.0	6	1.224744871391589	1.224744871391589
1599592943.5776036	1599592943.5776036	405.0	2.0	2	0.7071067811865476	0.7071067811865476
1599592944.197156	1599592944.197156	406.0	2.0	2	0.7071067811865476	0.7071067811865476
1599592944.8390143	1599592944.8390143	407.0	0.0	0	0	0.5
1599592945.4594674	1599592945.4594674	408.0	1.0	1	0.5	0.5
1599592946.0927649	1599592946.0927649	409.0	3.0	3	0.8660254037844386	0.8660254037844386
1599592946.73737	1599592946.73737	410.0	1.0	1	0.5	0.5
1599592947.3515298	1599592947.3515298	411.0	2.0	2	0.7071067811865476	0.7071067811865476
1599592947.935421	1599592947.935421	412.0	0.0	0	0	0.5
1599592948.5002716	1599592948.5002716	413.0	4.0	4	1.0	1.0
1599592949.0664704	1599592949.0664704	414.0	4.0	4	1.0	1.0
1599592949.63953	1599592949.63953	415.0	4.0	4	1.0	1.0
1599592950.2159245	1599592950.2159245	416.0	3.0	3	0.8660254037844386	0.8660254037844386
1599592950.7804434	1599592950.7804434	417.0	5.0	5	1.118033988749895	1.118033988749895
1599592951.3572292	1599592951.3572292	418.0	2.0	2	0.7071067811865476	0.7071067811865476
1599592951.931109	1599592951.931109	419.0	3.0	3	0.8660254037844386	0.8660254037844386
1599592952.565757	1599592952.565757	420.0	4.0	4	1.0	1.0
1599592953.0684142	1599592953.0684142	421.0	6.0	6	1.224744871391589	1.224744871391589
1599592953.6458914	1599592953.6458914	422.0	3.0	3	0.8660254037844386	0.8660254037844386
1599592954.2136128	1599592954.2136128	423.0	3.0	3	0.8660254037844386	0.8660254037844386
1599592954.7946498	1599592954.7946498	424.0	2.0	2	0.7071067811865476	0.7071067811865476
1599592955.357822	1599592955.357822	425.0	1.0	1	0.5	0.5
1599592955.9288535	1599592955.9288535	426.0	2.0	2	0.7071067811865476	0.7071067811865476
1599592956.5155435	1599592956.5155435	427.0	4.0	4	1.0	1.0
1599592957.0895991	1599592957.0895991	428.0	3.0	3	0.8660254037844386	0.8660254037844386
1599592957.6532617	1599592957.6532617	429.0	3.0	3	0.8660254037844386	0.8660254037844386
1599592958.2257402	1599592958.2257402	430.0	1.0	1	0.5	0.5
1599592958.783756	1599592958.783756	431.0	3.0	3	0.8660254037844386	0.8660254037844386
1599592959.2908728	1599592959.2908728	432.0	1.0	1	0.5	0.5
1599592959.8061366	1599592959.8061366	433.0	0.0	0	0	0.5
1599592960.3286633	1599592960.3286633	434.0	4.0	4	1.0	1.0
1599592960.8472922	1599592960.8472922	435.0	1.0	1	0.5	0.5
1599592961.356381	1599592961.356381	436.0	0.0	0	0	0.5
1599592961.8763392	1599592961.8763392	437.0	2.0	2	0.7071067811865476	0.7071067811865476
1599592962.3820622	1599592962.3820622	438.0	1.0	1	0.5	0.5
1599592962.9069114	1599592962.9069114	439.0	2.0	2	0.7071067811865476	0.7071067811865476
1599592963.4142694	1599592963.4142694	440.0	4.0	4	1.0	1.0
1599592963.9325962	1599592963.9325962	441.0	4.0	4	1.0	1.0
1599592964.4411368	1599592964.4411368	442.0	3.0	3	0.8660254037844386	0.8660254037844386
1599592964.9639452	1599592964.9639452	443.0	2.0	2	0.7071067811865476	0.7071067811865476
1599592965.484103	1599592965.484103	444.0	6.0	6	1.224744871391589	1.224744871391589
1599592965.9986653	1599592965.9986653	445.0	5.0	5	1.118033988749895	1.118033988749895
1599592966.5138695	1599592966.5138695	446.0	4.0	4	1.0	1.0
1599592967.017569	1599592967.017569	447.0	2.0	2	0.7071067811865476	0.7071067811865476
1599592967.5327666	1599592967.5327666	448.0	2.0	2	0.7071067811865476	0.7071067811865476
1599592968.0556285	1599592968.0556285	449.0	3.0	3	0.8660254037844386	0.8660254037844386
1599592968.570875	1599592968.570875	450.0	5.0	5	1.118033988749895	1.118033988749895
1599592969.0678895	1599592969.0678895	451.0	1.0	1	0.5	0.5
1599592969.530736	1599592969.530736	452.0	5.0	5	1.118033988749895	1.118033988749895
1599592970.0003603	1599592970.0003603	453.0	2.0	2	0.7071067811865476	0.7071067811865476
1599592970.4650054	1599592970.4650054	454.0	0.0	0	0	0.5
1599592970.9225097	1599592970.9225097	455.0	4.0	4	1.0	1.0
1599592971.3889287	1599592971.3889287	456.0	4.0	4	1.0	1.0
1599592971.854791	1599592971.854791	457.0	1.0	1	0.5	0.5
1599592972.3188248	1599592972.3188248	458.0	3.0	3	0.8660254037844386	0.8660254037844386
1599592972.7814696	1599592972.7814696	459.0	5.0	5	1.118033988749895	1.118033988749895
1599592973.2368925	1599592973.2368925	460.0	3.0	3	0.8660254037844386	0.8660254037844386
1599592973.7046409	1599592973.7046409	461.0	3.0	3	0.8660254037844386	0.8660254037844386
1599592974.167853	1599592974.167853	462.0	5.0	5	1.118033988749895	1.118033988749895
1599592974.6352737	1599592974.6352737	463.0	4.0	4	1.0	1.0
1599592975.0987434	1599592975.0987434	464.0	5.0	5	1.118033988749895	1.118033988749895
1599592975.5639126	1599592975.5639126	465.0	10.0	10	1.5811388300841898	1.5811388300841898
1599592976.0263658	1599592976.0263658	466.0	6.0	6	1.224744871391589	1.224744871391589
1599592976.545562	1599592976.545562	467.0	4.0	4	1.0	1.0
1599592976.9454117	1599592976.9454117	468.0	7.0	7	1.3228756555322954	1.3228756555322954
1599592977.415164	1599592977.415164	469.0	6.0	6	1.224744871391589	1.224744871391589
1599592977.879731	1599592977.879731	470.0	3.0	3	0.8660254037844386	0.8660254037844386
1599592978.3239858	1599592978.3239858	471.0	4.0	4	1.0	1.0
1599592978.7435484	1599592978.7435484	472.0	9.0	9	1.5	1.5
1599592979.1617806	1599592979.1617806	473.0	4.0	4	1.0	1.0
1599592979.5834067	1599592979.5834067	474.0	2.0	2	0.7071067811865476	0.7071067811865476
1599592979.9980733	1599592979.9980733	475.0	7.0	7	1.3228756555322954	1.3228756555322954
1599592980.4182057	1599592980.4182057	476.0	4.0	4	1.0	1.0
1599592980.83498	1599592980.83498	477.0	9.0	9	1.5	1.5
1599592981.24817	1599592981.24817	478.0	5.0	5	1.118033988749895	1.118033988749895
1599592981.6606781	1599592981.6606781	479.0	4.0	4	1.0	1.0
1599592982.0806782	1599592982.0806782	480.0	6.0	6	1.224744871391589	1.224744871391589
1599592982.4992611	1599592982.4992611	481.0	3.0	3	0.8660254037844386	0.8660254037844386
1599592982.9207819	1599592982.9207819	482.0	4.0	4	1.0	1.0
1599592983.333476	1599592983.333476	483.0	5.0	5	1.118033988749895	1.118033988749895
1599592983.748234	1599592983.748234	484.0	3.0	3	0.8660254037844386	0.8660254037844386
1599592984.1673036	1599592984.1673036	485.0	2.0	2	0.7071067811865476	0.7071067811865476
1599592984.5883698	1599592984.5883698	486.0	2.0	2	0.7071067811865476	0.7071067811865476
1599592985.0043073	1599592985.0043073	487.0	2.0	2	0.7071067811865476	0.7071067811865476
1599592985.425112	1599592985.425112	488.0	0.0	0	0	0.5
1599592985.8790922	1599592985.8790922	489.0	4.0	4	1.0	1.0
1599592986.2551599	1599592986.2551599	490.0	1.0	1	0.5	0.5
1599592986.7032957	1599592986.7032957	491.0	5.0	5	1.118033988749895	1.118033988749895
1599592987.1119683	1599592987.1119683	492.0	5.0	5	1.118033988749895	1.118033988749895
1599592987.6526692	1599592987.6526692	493.0	2.0	2	0.7071067811865476	0.7071067811865476
1599592988.0080574	1599592988.0080574	494.0	3.0	3	0.8660254037844386	0.8660254037844386
1599592988.3187015	1599592988.3187015	495.0	4.0	4	1.0	1.0
1599592989.0336673	1599592989.0336673	496.0	2.0	2	0.7071067811865476	0.7071067811865476
1599592989.3051229	1599592989.3051229	497.0	2.0	2	0.7071067811865476	0.7071067811865476
1599592989.4584668	1599592989.4584668	498.0	1.0	1	0.5	0.5
1599592989.7589293	1599592989.7589293	499.0	2.0	2	0.7071067811865476	0.7071067811865476
1599592990.0944927	1599592990.0944927	500.0	0.0	0	0	0.5
1599592990.5076487	1599592990.5076487	501.0	3.0	3	0.8660254037844386	0.8660254037844386
1599592991.0225089	1599592991.0225089	502.0	4.0	4	1.0	1.0
1599592991.174995	1599592991.174995	503.0	5.0	5	1.118033988749895	1.118033988749895
1599592991.5422387	1599592991.5422387	504.0	2.0	2	0.7071067811865476	0.7071067811865476
1599592991.9151134	1599592991.9151134	505.0	5.0	5	1.118033988749895	1.118033988749895
1599592992.2971113	1599592992.2971113	506.0	3.0	3	0.8660254037844386	0.8660254037844386
1599592992.6643987	1599592992.6643987	507.0	3.0	3	0.8660254037844386	0.8660254037844386
1599592993.046067	1599592993.046067	508.0	7.0	7	1.3228756555322954	1.3228756555322954
1599592993.414084	1599592993.414084	509.0	1.0	1	0.5	0.5
1599592993.7993867	1599592993.7993867	510.0	3.0	3	0.8660254037844386	0.8660254037844386
1599592994.183172	1599592994.183172	511.0	2.0	2	0.7071067811865476	0.7071067811865476
1599592994.5914886	1599592994.5914886	512.0	5.0	5	1.118033988749895	1.118033988749895
1599592995.0105908	1599592995.0105908	513.0	2.0	2	0.7071067811865476	0.7071067811865476
1599592995.418594	1599592995.418594	514.0	3.0	3	0.8660254037844386	0.8660254037844386
1599592995.8394148	1599592995.8394148	515.0	6.0	6	1.224744871391589	1.224744871391589
1599592996.248113	1599592996.248113	516.0	4.0	4	1.0	1.0
1599592996.6591153	1599592996.6591153	517.0	5.0	5	1.118033988749895	1.118033988749895
1599592997.0808308	1599592997.0808308	518.0	1.0	1	0.5	0.5
1599592997.4859555	1599592997.4859555	519.0	0.0	0	0	0.5
1599592997.9016852	1599592997.9016852	520.0	4.0	4	1.0	1.0
1599592998.3141143	1599592998.3141143	521.0	0.0	0	0	0.5
1599592998.7307105	1599592998.7307105	522.0	3.0	3	0.8660254037844386	0.8660254037844386
1599592999.138465	1599592999.138465	523.0	3.0	3	0.8660254037844386	0.8660254037844386
1599592999.5499337	1599592999.5499337	524.0	2.0	2	0.7071067811865476	0.7071067811865476
1599592999.9678876	1599592999.9678876	525.0	3.0	3	0.8660254037844386	0.8660254037844386
1599593000.388266	1599593000.388266	526.0	3.0	3	0.8660254037844386	0.8660254037844386
1599593000.792851	1599593000.792851	527.0	6.0	6	1.224744871391589	1.224744871391589
1599593001.1989272	1599593001.1989272	528.0	2.0	2	0.7071067811865476	0.7071067811865476
1599593001.6162624	1599593001.6162624	529.0	4.0	4	1.0	1.0
1599593002.033998	1599593002.033998	530.0	1.0	1	0.5	0.5
1599593002.455791	1599593002.455791	531.0	6.0	6	1.224744871391589	1.224744871391589
1599593002.9117591	1599593002.9117591	532.0	1.0	1	0.5	0.5
1599593003.3700902	1599593003.3700902	533.0	4.0	4	1.0	1.0
1599593003.8191245	1599593003.8191245	534.0	1.0	1	0.5	0.5
1599593004.2805898	1599593004.2805898	535.0	4.0	4	1.0	1.0
1599593004.8158262	1599593004.8158262	536.0	1.0	1	0.5	0.5
1599593005.184699	1599593005.184699	537.0	6.0	6	1.224744871391589	1.224744871391589
1599593005.6386697	1599593005.6386697	538.0	5.0	5	1.118033988749895	1.118033988749895
1599593006.0914211	1599593006.0914211	539.0	5.0	5	1.118033988749895	1.118033988749895
1599593006.5396597	1599593006.5396597	540.0	2.0	2	0.7071067811865476	0.7071067811865476
1599593007.0018806	1599593007.0018806	541.0	4.0	4	1.0	1.0
1599593007.4540846	1599593007.4540846	542.0	2.0	2	0.7071067811865476	0.7071067811865476
1599593007.9099965	1599593007.9099965	543.0	3.0	3	0.8660254037844386	0.8660254037844386
1599593008.3600168	1599593008.3600168	544.0	2.0	2	0.7071067811865476	0.7071067811865476
1599593008.8217156	1599593008.8217156	545.0	6.0	6	1.224744871391589	1.224744871391589
1599593009.287056	1599593009.287056	546.0	0.0	0	0	0.5
1599593009.7228339	1599593009.7228339	547.0	6.0	6	1.224744871391589	1.224744871391589
1599593010.1805544	1599593010.1805544	548.0	1.0	1	0.5	0.5
1599593010.6423347	1599593010.6423347	549.0	3.0	3	0.8660254037844386	0.8660254037844386
1599593011.0903587	1599593011.0903587	550.0	2.0	2	0.7071067811865476	0.7071067811865476
1599593011.5546646	1599593011.5546646	551.0	4.0	4	1.0	1.0
1599593012.0579534	1599593012.0579534	552.0	5.0	5	1.118033988749895	1.118033988749895
1599593012.5605247	1599593012.5605247	553.0	1.0	1	0.5	0.5
1599593013.0518916	1599593013.0518916	554.0	5.0	5	1.118033988749895	1.118033988749895
1599593013.555015	1599593013.555015	555.0	0.0	0	0	0.5
1599593014.050965	1599593014.050965	556.0	4.0	4	1.0	1.0
1599593014.5551796	1599593014.5551796	557.0	3.0	3	0.8660254037844386	0.8660254037844386
1599593015.0490675	1599593015.0490675	558.0	3.0	3	0.8660254037844386	0.8660254037844386
1599593015.5554507	1599593015.5554507	559.0	0.0	0	0	0.5
1599593016.05114	1599593016.05114	560.0	2.0	2	0.7071067811865476	0.7071067811865476
1599593016.5490155	1599593016.5490155	561.0	2.0	2	0.7071067811865476	0.7071067811865476
1599593017.0566463	1599593017.0566463	562.0	3.0	3	0.8660254037844386	0.8660254037844386
1599593017.5539107	1599593017.5539107	563.0	1.0	1	0.5	0.5
1599593018.0506577	1599593018.0506577	564.0	2.0	2	0.7071067811865476	0.7071067811865476
1599593018.5609925	1599593018.5609925	565.0	2.0	2	0.7071067811865476	0.7071067811865476
1599593019.047969	1599593019.047969	566.0	2.0	2	0.7071067811865476	0.7071067811865476
1599593019.5526018	1599593019.5526018	567.0	4.0	4	1.0	1.0
1599593020.0569515	1599593020.0569515	568.0	5.0	5	1.118033988749895	1.118033988749895
1599593020.5499032	1599593020.5499032	569.0	7.0	7	1.3228756555322954	1.3228756555322954
1599593021.0570679	1599593021.0570679	570.0	3.0	3	0.8660254037844386	0.8660254037844386
1599593021.5734556	1599593021.5734556	571.0	5.0	5	1.118033988749895	1.118033988749895
1599593022.128481	1599593022.128481	572.0	2.0	2	0.7071067811865476	0.7071067811865476
1599593022.6700475	1599593022.6700475	573.0	5.0	5	1.118033988749895	1.118033988749895
1599593023.2145402	1599593023.2145402	574.0	6.0	6	1.224744871391589	1.224744871391589
1599593023.761032	1599593023.761032	575.0	3.0	3	0.8660254037844386	0.8660254037844386
1599593024.3178556	1599593024.3178556	576.0	4.0	4	1.0	1.0
1599593024.8655293	1599593024.8655293	577.0	5.0	5	1.118033988749895	1.118033988749895
1599593025.4236286	1599593025.4236286	578.0	2.0	2	0.7071067811865476	0.7071067811865476
1599593025.9648714	1599593025.9648714	579.0	2.0	2	0.7071067811865476	0.7071067811865476
1599593026.5136907	1599593026.5136907	580.0	3.0	3	0.8660254037844386	0.8660254037844386
1599593027.0664828	1599593027.0664828	581.0	5.0	5	1.118033988749895	1.118033988749895
1599593027.6134837	1599593027.6134837	582.0	2.0	2	0.7071067811865476	0.7071067811865476
1599593028.2195802	1599593028.2195802	583.0	2.0	2	0.7071067811865476	0.7071067811865476
1599593028.7125652	1599593028.7125652	584.0	1.0	1	0.5	0.5
1599593029.2664623	1599593029.2664623	585.0	7.0	7	1.3228756555322954	1.3228756555322954
1599593029.8189764	1599593029.8189764	586.0	7.0	7	1.3228756555322954	1.3228756555322954
1599593030.3586957	1599593030.3586957	587.0	2.0	2	0.7071067811865476	0.7071067811865476
1599593030.914884	1599593030.914884	588.0	3.0	3	0.8660254037844386	0.8660254037844386
1599593031.4596946	1599593031.4596946	589.0	4.0	4	1.0	1.0
1599593032.0141823	1599593032.0141823	590.0	6.0	6	1.224744871391589	1.224744871391589
1599593032.5862157	1599593032.5862157	591.0	7.0	7	1.3228756555322954	1.3228756555322954
1599593033.1835012	1599593033.1835012	592.0	6.0	6	1.224744871391589	1.224744871391589
1599593033.786746	1599593033.786746	593.0	2.0	2	0.7071067811865476	0.7071067811865476
1599593034.3946705	1599593034.3946705	594.0	4.0	4	1.0	1.0
1599593035.0005925	1599593035.0005925	595.0	2.0	2	0.7071067811865476	0.7071067811865476
1599593035.6049762	1599593035.6049762	596.0	3.0	3	0.8660254037844386	0.8660254037844386
1599593036.2175586	1599593036.2175586	597.0	7.0	7	1.3228756555322954	1.3228756555322954
1599593036.8175628	1599593036.8175628	598.0	2.0	2	0.7071067811865476	0.7071067811865476
1599593037.4114625	1599593037.4114625	599.0	3.0	3	0.8660254037844386	0.8660254037844386
1599593038.0289822	1599593038.0289822	600.0	5.0	5	1.118033988749895	1.118033988749895