# <?xml version="1.0" ?>
# <DataFileHeader>
#   <Variables>
#     <Element name="PulseProgram" type="dict">
#       <Element name="PulseProgram" type="str">C:/Users/ions/Documents/IonControl/project_dir/QuditLab/config/PulseProgramsPlus/Ablation_NeutralFluorescence.ppp</Element>
#       <Element name="NULL" type="Quantity">0</Element>
#       <Element name="FFFFFFFF" type="Quantity">18446744073709551615</Element>
#       <Element name="INTERRUPT_EXITCODE" type="Quantity">18446198715942174720</Element>
#       <Element name="InitializationShutter" type="int">5154</Element>
#       <Element name="NaturalAblation_mask" type="int">256</Element>
#       <Element name="NaturalAblation" type="int">256</Element>
#       <Element name="EndShutter" type="int">5154</Element>
#       <Element name="ShutterDelayTime" type="Quantity">0.5 s</Element>
#       <Element name="WindowStartTime" type="Quantity">145 us</Element>
#       <Element name="DetectTime" type="Quantity">20 us</Element>
#       <Element name="DummyVar" type="int">0</Element>
#       <Element name="experiments" type="int">1</Element>
#       <Element name="DetectCounters" type="int">1</Element>
#       <Element name="endLabel" type="Quantity">18446744073709551615</Element>
#       <Element name="experimentsleft" type="Quantity">100</Element>
#       <Element name="currentexperiment" type="Quantity">0</Element>
#       <Element name="inlinevar_1" type="Quantity">1</Element>
#     </Element>
#     <Element name="Scan" type="dict">
#       <Element name="scanParameter" type="str">DummyVar</Element>
#       <Element name="scanTarget" type="str">Internal</Element>
#       <Element name="scantype" type="int">0</Element>
#       <Element name="scanMode" type="int">0</Element>
#       <Element name="xUnit" type="str"></Element>
#       <Element name="xExpression" type="str"></Element>
#       <Element name="loadPP" type="bool">True</Element>
#       <Element name="loadPPName" type="str">Ablation_NeutralFluorescence_Rad.ppp</Element>
#       <Element name="parallelInternalScanParameter" type="str">None</Element>
#     </Element>
#     <ColumnSpec>timeTickFirst, timeTickLast, x, PMT Count, PMT Count_raw, PMT Count_bottom, PMT Count_top</ColumnSpec>
#     <Element name="comment" type="str"></Element>
#     <Element name="lastDataAquired" type="datetime">2020-09-08 18:56:43.551491+00:00</Element>
#     <Element name="name" type="str"></Element>
#     <Element name="traceCreation" type="datetime">2020-09-08 18:52:34.612718+00:00</Element>
#     <Element name="traceFinalized" type="datetime">2020-09-08 18:56:43.558072+00:00</Element>
#     <TracePlottingList>
#       <TracePlotting _bottomColumn="PMT Count_bottom" _filtColumn="None" _fitFunction="None" _heightColumn="height" _rawColumn="PMT Count_raw" _topColumn="PMT Count_top" _xColumn="x" _yColumn="PMT Count" fill="True" name="PMT Count" properties="&lt;trace.PlottedTrace.PlottedTraceProperties object at 0x000002A98507F5F8&gt;" style="0" type="0" windowName="Scan Data" xAxisLabel="DummyVar" xAxisUnit="" yAxisLabel="None">
#         <PlottedTraceProperties averageSameX="False" averageType="0" combinePoints="0"/>
#       </TracePlotting>
#     </TracePlottingList>
#   </Variables>
# </DataFileHeader>
1599591153.2180061	1599591153.2180061	1.0	19.0	19	2.179449471770337	2.179449471770337
1599591154.6094794	1599591154.6094794	2.0	8.0	8	1.4142135623730951	1.4142135623730951
1599591155.3321047	1599591155.3321047	3.0	7.0	7	1.3228756555322954	1.3228756555322954
1599591155.9842584	1599591155.9842584	4.0	6.0	6	1.224744871391589	1.224744871391589
1599591156.6296103	1599591156.6296103	5.0	7.0	7	1.3228756555322954	1.3228756555322954
1599591157.3035831	1599591157.3035831	6.0	7.0	7	1.3228756555322954	1.3228756555322954
1599591157.9743168	1599591157.9743168	7.0	3.0	3	0.8660254037844386	0.8660254037844386
1599591158.6497571	1599591158.6497571	8.0	14.0	14	1.8708286933869707	1.8708286933869707
1599591159.282715	1599591159.282715	9.0	5.0	5	1.118033988749895	1.118033988749895
1599591159.8883927	1599591159.8883927	10.0	8.0	8	1.4142135623730951	1.4142135623730951
1599591160.4983752	1599591160.4983752	11.0	9.0	9	1.5	1.5
1599591161.1102922	1599591161.1102922	12.0	7.0	7	1.3228756555322954	1.3228756555322954
1599591161.7167768	1599591161.7167768	13.0	4.0	4	1.0	1.0
1599591162.32431	1599591162.32431	14.0	7.0	7	1.3228756555322954	1.3228756555322954
1599591162.9212067	1599591162.9212067	15.0	8.0	8	1.4142135623730951	1.4142135623730951
1599591163.539645	1599591163.539645	16.0	9.0	9	1.5	1.5
1599591164.1349976	1599591164.1349976	17.0	5.0	5	1.118033988749895	1.118033988749895
1599591164.7530954	1599591164.7530954	18.0	7.0	7	1.3228756555322954	1.3228756555322954
1599591165.3636084	1599591165.3636084	19.0	6.0	6	1.224744871391589	1.224744871391589
1599591165.9720678	1599591165.9720678	20.0	11.0	11	1.6583123951777	1.6583123951777
1599591166.576783	1599591166.576783	21.0	6.0	6	1.224744871391589	1.224744871391589
1599591167.1846478	1599591167.1846478	22.0	4.0	4	1.0	1.0
1599591167.795023	1599591167.795023	23.0	5.0	5	1.118033988749895	1.118033988749895
1599591168.4038246	1599591168.4038246	24.0	6.0	6	1.224744871391589	1.224744871391589
1599591169.0108144	1599591169.0108144	25.0	11.0	11	1.6583123951777	1.6583123951777
1599591169.608092	1599591169.608092	26.0	7.0	7	1.3228756555322954	1.3228756555322954
1599591170.2263951	1599591170.2263951	27.0	6.0	6	1.224744871391589	1.224744871391589
1599591170.8274336	1599591170.8274336	28.0	5.0	5	1.118033988749895	1.118033988749895
1599591171.400703	1599591171.400703	29.0	7.0	7	1.3228756555322954	1.3228756555322954
1599591171.9376588	1599591171.9376588	30.0	8.0	8	1.4142135623730951	1.4142135623730951
1599591172.4914567	1599591172.4914567	31.0	4.0	4	1.0	1.0
1599591173.0344582	1599591173.0344582	32.0	3.0	3	0.8660254037844386	0.8660254037844386
1599591173.582165	1599591173.582165	33.0	2.0	2	0.7071067811865476	0.7071067811865476
1599591174.1389282	1599591174.1389282	34.0	6.0	6	1.224744871391589	1.224744871391589
1599591174.682566	1599591174.682566	35.0	7.0	7	1.3228756555322954	1.3228756555322954
1599591175.2249525	1599591175.2249525	36.0	5.0	5	1.118033988749895	1.118033988749895
1599591175.8187468	1599591175.8187468	37.0	6.0	6	1.224744871391589	1.224744871391589
1599591176.3157704	1599591176.3157704	38.0	6.0	6	1.224744871391589	1.224744871391589
1599591176.8633633	1599591176.8633633	39.0	4.0	4	1.0	1.0
1599591177.4131045	1599591177.4131045	40.0	5.0	5	1.118033988749895	1.118033988749895
1599591177.963482	1599591177.963482	41.0	4.0	4	1.0	1.0
1599591178.5065439	1599591178.5065439	42.0	4.0	4	1.0	1.0
1599591179.2052474	1599591179.2052474	43.0	7.0	7	1.3228756555322954	1.3228756555322954
1599591179.6020741	1599591179.6020741	44.0	5.0	5	1.118033988749895	1.118033988749895
1599591180.1543896	1599591180.1543896	45.0	4.0	4	1.0	1.0
1599591180.7000291	1599591180.7000291	46.0	11.0	11	1.6583123951777	1.6583123951777
1599591181.2457333	1599591181.2457333	47.0	7.0	7	1.3228756555322954	1.3228756555322954
1599591181.7881672	1599591181.7881672	48.0	9.0	9	1.5	1.5
1599591182.3013027	1599591182.3013027	49.0	6.0	6	1.224744871391589	1.224744871391589
1599591182.8044636	1599591182.8044636	50.0	10.0	10	1.5811388300841898	1.5811388300841898
1599591183.2924492	1599591183.2924492	51.0	10.0	10	1.5811388300841898	1.5811388300841898
1599591183.7730856	1599591183.7730856	52.0	13.0	13	1.8027756377319946	1.8027756377319946
1599591184.2743354	1599591184.2743354	53.0	4.0	4	1.0	1.0
1599591184.7633905	1599591184.7633905	54.0	10.0	10	1.5811388300841898	1.5811388300841898
1599591185.2525635	1599591185.2525635	55.0	12.0	12	1.7320508075688772	1.7320508075688772
1599591185.9105654	1599591185.9105654	56.0	5.0	5	1.118033988749895	1.118033988749895
1599591186.5730891	1599591186.5730891	57.0	2.0	2	0.7071067811865476	0.7071067811865476
1599591187.0506628	1599591187.0506628	58.0	6.0	6	1.224744871391589	1.224744871391589
1599591187.5069156	1599591187.5069156	59.0	4.0	4	1.0	1.0
1599591187.967054	1599591187.967054	60.0	8.0	8	1.4142135623730951	1.4142135623730951
1599591188.5058343	1599591188.5058343	61.0	8.0	8	1.4142135623730951	1.4142135623730951
1599591188.9820619	1599591188.9820619	62.0	4.0	4	1.0	1.0
1599591189.370397	1599591189.370397	63.0	9.0	9	1.5	1.5
1599591189.6848958	1599591189.6848958	64.0	10.0	10	1.5811388300841898	1.5811388300841898
1599591190.1748836	1599591190.1748836	65.0	5.0	5	1.118033988749895	1.118033988749895
1599591190.6918328	1599591190.6918328	66.0	5.0	5	1.118033988749895	1.118033988749895
1599591191.1698208	1599591191.1698208	67.0	1.0	1	0.5	0.5
1599591191.6559947	1599591191.6559947	68.0	6.0	6	1.224744871391589	1.224744871391589
1599591192.1978483	1599591192.1978483	69.0	10.0	10	1.5811388300841898	1.5811388300841898
1599591192.5652902	1599591192.5652902	70.0	9.0	9	1.5	1.5
1599591193.0058153	1599591193.0058153	71.0	6.0	6	1.224744871391589	1.224744871391589
1599591193.4474573	1599591193.4474573	72.0	3.0	3	0.8660254037844386	0.8660254037844386
1599591193.8891048	1599591193.8891048	73.0	8.0	8	1.4142135623730951	1.4142135623730951
1599591194.3325925	1599591194.3325925	74.0	15.0	15	1.9364916731037085	1.9364916731037085
1599591194.7781835	1599591194.7781835	75.0	9.0	9	1.5	1.5
1599591195.2145343	1599591195.2145343	76.0	3.0	3	0.8660254037844386	0.8660254037844386
1599591195.6648283	1599591195.6648283	77.0	12.0	12	1.7320508075688772	1.7320508075688772
1599591196.0983706	1599591196.0983706	78.0	4.0	4	1.0	1.0
1599591196.549568	1599591196.549568	79.0	6.0	6	1.224744871391589	1.224744871391589
1599591196.995267	1599591196.995267	80.0	6.0	6	1.224744871391589	1.224744871391589
1599591197.4276216	1599591197.4276216	81.0	6.0	6	1.224744871391589	1.224744871391589
1599591197.8774908	1599591197.8774908	82.0	4.0	4	1.0	1.0
1599591198.3225026	1599591198.3225026	83.0	3.0	3	0.8660254037844386	0.8660254037844386
1599591198.7655835	1599591198.7655835	84.0	6.0	6	1.224744871391589	1.224744871391589
1599591199.2036645	1599591199.2036645	85.0	5.0	5	1.118033988749895	1.118033988749895
1599591199.6484327	1599591199.6484327	86.0	7.0	7	1.3228756555322954	1.3228756555322954
1599591200.0997941	1599591200.0997941	87.0	7.0	7	1.3228756555322954	1.3228756555322954
1599591200.5400376	1599591200.5400376	88.0	7.0	7	1.3228756555322954	1.3228756555322954
1599591200.9465919	1599591200.9465919	89.0	2.0	2	0.7071067811865476	0.7071067811865476
1599591201.3534045	1599591201.3534045	90.0	8.0	8	1.4142135623730951	1.4142135623730951
1599591201.7523358	1599591201.7523358	91.0	2.0	2	0.7071067811865476	0.7071067811865476
1599591202.1494238	1599591202.1494238	92.0	7.0	7	1.3228756555322954	1.3228756555322954
1599591202.5473664	1599591202.5473664	93.0	14.0	14	1.8708286933869707	1.8708286933869707
1599591202.9429712	1599591202.9429712	94.0	10.0	10	1.5811388300841898	1.5811388300841898
1599591203.3569064	1599591203.3569064	95.0	11.0	11	1.6583123951777	1.6583123951777
1599591203.7441673	1599591203.7441673	96.0	8.0	8	1.4142135623730951	1.4142135623730951
1599591204.1436028	1599591204.1436028	97.0	8.0	8	1.4142135623730951	1.4142135623730951
1599591204.5383744	1599591204.5383744	98.0	7.0	7	1.3228756555322954	1.3228756555322954
1599591204.9519353	1599591204.9519353	99.0	3.0	3	0.8660254037844386	0.8660254037844386
1599591205.3423254	1599591205.3423254	100.0	3.0	3	0.8660254037844386	0.8660254037844386
1599591205.7400155	1599591205.7400155	101.0	7.0	7	1.3228756555322954	1.3228756555322954
1599591206.135498	1599591206.135498	102.0	13.0	13	1.8027756377319946	1.8027756377319946
1599591206.5369747	1599591206.5369747	103.0	9.0	9	1.5	1.5
1599591206.933221	1599591206.933221	104.0	5.0	5	1.118033988749895	1.118033988749895
1599591207.3349764	1599591207.3349764	105.0	9.0	9	1.5	1.5
1599591207.7365937	1599591207.7365937	106.0	5.0	5	1.118033988749895	1.118033988749895
1599591208.1440923	1599591208.1440923	107.0	11.0	11	1.6583123951777	1.6583123951777
1599591208.544121	1599591208.544121	108.0	6.0	6	1.224744871391589	1.224744871391589
1599591208.9110188	1599591208.9110188	109.0	2.0	2	0.7071067811865476	0.7071067811865476
1599591209.264228	1599591209.264228	110.0	4.0	4	1.0	1.0
1599591209.6309717	1599591209.6309717	111.0	7.0	7	1.3228756555322954	1.3228756555322954
1599591209.9777956	1599591209.9777956	112.0	4.0	4	1.0	1.0
1599591210.3414302	1599591210.3414302	113.0	7.0	7	1.3228756555322954	1.3228756555322954
1599591210.7004595	1599591210.7004595	114.0	6.0	6	1.224744871391589	1.224744871391589
1599591211.0665855	1599591211.0665855	115.0	6.0	6	1.224744871391589	1.224744871391589
1599591211.427758	1599591211.427758	116.0	4.0	4	1.0	1.0
1599591211.7811491	1599591211.7811491	117.0	1.0	1	0.5	0.5
1599591212.14336	1599591212.14336	118.0	1.0	1	0.5	0.5
1599591212.4875987	1599591212.4875987	119.0	4.0	4	1.0	1.0
1599591212.8469384	1599591212.8469384	120.0	3.0	3	0.8660254037844386	0.8660254037844386
1599591213.2540147	1599591213.2540147	121.0	5.0	5	1.118033988749895	1.118033988749895
1599591213.5627048	1599591213.5627048	122.0	4.0	4	1.0	1.0
1599591213.9332433	1599591213.9332433	123.0	2.0	2	0.7071067811865476	0.7071067811865476
1599591214.2849078	1599591214.2849078	124.0	11.0	11	1.6583123951777	1.6583123951777
1599591214.6513255	1599591214.6513255	125.0	4.0	4	1.0	1.0
1599591215.010776	1599591215.010776	126.0	3.0	3	0.8660254037844386	0.8660254037844386
1599591215.3705788	1599591215.3705788	127.0	2.0	2	0.7071067811865476	0.7071067811865476
1599591215.718208	1599591215.718208	128.0	8.0	8	1.4142135623730951	1.4142135623730951
1599591216.103197	1599591216.103197	129.0	2.0	2	0.7071067811865476	0.7071067811865476
1599591216.4955397	1599591216.4955397	130.0	5.0	5	1.118033988749895	1.118033988749895
1599591216.8954372	1599591216.8954372	131.0	8.0	8	1.4142135623730951	1.4142135623730951
1599591217.288795	1599591217.288795	132.0	2.0	2	0.7071067811865476	0.7071067811865476
1599591217.6804214	1599591217.6804214	133.0	4.0	4	1.0	1.0
1599591218.0861337	1599591218.0861337	134.0	6.0	6	1.224744871391589	1.224744871391589
1599591218.4807906	1599591218.4807906	135.0	2.0	2	0.7071067811865476	0.7071067811865476
1599591218.8805778	1599591218.8805778	136.0	5.0	5	1.118033988749895	1.118033988749895
1599591219.261696	1599591219.261696	137.0	1.0	1	0.5	0.5
1599591219.6552868	1599591219.6552868	138.0	3.0	3	0.8660254037844386	0.8660254037844386
1599591220.0519235	1599591220.0519235	139.0	6.0	6	1.224744871391589	1.224744871391589
1599591220.4540415	1599591220.4540415	140.0	5.0	5	1.118033988749895	1.118033988749895
1599591220.8405702	1599591220.8405702	141.0	2.0	2	0.7071067811865476	0.7071067811865476
1599591221.2475843	1599591221.2475843	142.0	6.0	6	1.224744871391589	1.224744871391589
1599591221.641271	1599591221.641271	143.0	2.0	2	0.7071067811865476	0.7071067811865476
1599591222.037692	1599591222.037692	144.0	7.0	7	1.3228756555322954	1.3228756555322954
1599591222.5121887	1599591222.5121887	145.0	5.0	5	1.118033988749895	1.118033988749895
1599591222.8224015	1599591222.8224015	146.0	3.0	3	0.8660254037844386	0.8660254037844386
1599591223.2229614	1599591223.2229614	147.0	4.0	4	1.0	1.0
1599591223.6141353	1599591223.6141353	148.0	6.0	6	1.224744871391589	1.224744871391589
1599591224.0245574	1599591224.0245574	149.0	1.0	1	0.5	0.5
1599591224.4694772	1599591224.4694772	150.0	1.0	1	0.5	0.5
1599591224.89607	1599591224.89607	151.0	2.0	2	0.7071067811865476	0.7071067811865476
1599591225.3396792	1599591225.3396792	152.0	3.0	3	0.8660254037844386	0.8660254037844386
1599591225.7658148	1599591225.7658148	153.0	1.0	1	0.5	0.5
1599591226.2117531	1599591226.2117531	154.0	7.0	7	1.3228756555322954	1.3228756555322954
1599591226.6300478	1599591226.6300478	155.0	7.0	7	1.3228756555322954	1.3228756555322954
1599591227.0657349	1599591227.0657349	156.0	9.0	9	1.5	1.5
1599591227.5028896	1599591227.5028896	157.0	6.0	6	1.224744871391589	1.224744871391589
1599591227.9441829	1599591227.9441829	158.0	4.0	4	1.0	1.0
1599591228.3792028	1599591228.3792028	159.0	3.0	3	0.8660254037844386	0.8660254037844386
1599591228.821395	1599591228.821395	160.0	5.0	5	1.118033988749895	1.118033988749895
1599591229.2427206	1599591229.2427206	161.0	3.0	3	0.8660254037844386	0.8660254037844386
1599591229.6853075	1599591229.6853075	162.0	8.0	8	1.4142135623730951	1.4142135623730951
1599591230.256398	1599591230.256398	163.0	5.0	5	1.118033988749895	1.118033988749895
1599591230.5409021	1599591230.5409021	164.0	5.0	5	1.118033988749895	1.118033988749895
1599591230.9908366	1599591230.9908366	165.0	3.0	3	0.8660254037844386	0.8660254037844386
1599591231.4249494	1599591231.4249494	166.0	2.0	2	0.7071067811865476	0.7071067811865476
1599591231.860656	1599591231.860656	167.0	3.0	3	0.8660254037844386	0.8660254037844386
1599591232.285737	1599591232.285737	168.0	5.0	5	1.118033988749895	1.118033988749895
1599591232.7412174	1599591232.7412174	169.0	5.0	5	1.118033988749895	1.118033988749895
1599591233.2289815	1599591233.2289815	170.0	4.0	4	1.0	1.0
1599591233.7076037	1599591233.7076037	171.0	4.0	4	1.0	1.0
1599591234.1891906	1599591234.1891906	172.0	3.0	3	0.8660254037844386	0.8660254037844386
1599591234.6718628	1599591234.6718628	173.0	2.0	2	0.7071067811865476	0.7071067811865476
1599591235.14696	1599591235.14696	174.0	1.0	1	0.5	0.5
1599591235.6264646	1599591235.6264646	175.0	2.0	2	0.7071067811865476	0.7071067811865476
1599591236.1001797	1599591236.1001797	176.0	3.0	3	0.8660254037844386	0.8660254037844386
1599591236.5837445	1599591236.5837445	177.0	3.0	3	0.8660254037844386	0.8660254037844386
1599591237.0636582	1599591237.0636582	178.0	8.0	8	1.4142135623730951	1.4142135623730951
1599591237.524966	1599591237.524966	179.0	4.0	4	1.0	1.0
1599591238.0047784	1599591238.0047784	180.0	6.0	6	1.224744871391589	1.224744871391589
1599591238.4827077	1599591238.4827077	181.0	4.0	4	1.0	1.0
1599591238.9858623	1599591238.9858623	182.0	3.0	3	0.8660254037844386	0.8660254037844386
1599591239.5029724	1599591239.5029724	183.0	5.0	5	1.118033988749895	1.118033988749895
1599591239.9177203	1599591239.9177203	184.0	7.0	7	1.3228756555322954	1.3228756555322954
1599591240.3905964	1599591240.3905964	185.0	5.0	5	1.118033988749895	1.118033988749895
1599591240.870299	1599591240.870299	186.0	2.0	2	0.7071067811865476	0.7071067811865476
1599591241.372446	1599591241.372446	187.0	7.0	7	1.3228756555322954	1.3228756555322954
1599591241.8313012	1599591241.8313012	188.0	4.0	4	1.0	1.0
1599591242.349377	1599591242.349377	189.0	3.0	3	0.8660254037844386	0.8660254037844386
1599591242.8626857	1599591242.8626857	190.0	6.0	6	1.224744871391589	1.224744871391589
1599591243.3977077	1599591243.3977077	191.0	10.0	10	1.5811388300841898	1.5811388300841898
1599591244.0009174	1599591244.0009174	192.0	5.0	5	1.118033988749895	1.118033988749895
1599591244.4499366	1599591244.4499366	193.0	7.0	7	1.3228756555322954	1.3228756555322954
1599591244.9767406	1599591244.9767406	194.0	8.0	8	1.4142135623730951	1.4142135623730951
1599591245.48905	1599591245.48905	195.0	4.0	4	1.0	1.0
1599591246.0231392	1599591246.0231392	196.0	5.0	5	1.118033988749895	1.118033988749895
1599591246.5415757	1599591246.5415757	197.0	7.0	7	1.3228756555322954	1.3228756555322954
1599591247.069698	1599591247.069698	198.0	5.0	5	1.118033988749895	1.118033988749895
1599591247.6006835	1599591247.6006835	199.0	4.0	4	1.0	1.0
1599591248.1269066	1599591248.1269066	200.0	7.0	7	1.3228756555322954	1.3228756555322954
1599591248.6413307	1599591248.6413307	201.0	5.0	5	1.118033988749895	1.118033988749895
1599591249.180151	1599591249.180151	202.0	10.0	10	1.5811388300841898	1.5811388300841898
1599591249.7015615	1599591249.7015615	203.0	5.0	5	1.118033988749895	1.118033988749895
1599591250.2298326	1599591250.2298326	204.0	4.0	4	1.0	1.0
1599591250.752757	1599591250.752757	205.0	8.0	8	1.4142135623730951	1.4142135623730951
1599591251.2785356	1599591251.2785356	206.0	4.0	4	1.0	1.0
1599591251.7954507	1599591251.7954507	207.0	8.0	8	1.4142135623730951	1.4142135623730951
1599591252.3252017	1599591252.3252017	208.0	3.0	3	0.8660254037844386	0.8660254037844386
1599591252.8829215	1599591252.8829215	209.0	10.0	10	1.5811388300841898	1.5811388300841898
1599591253.4612558	1599591253.4612558	210.0	8.0	8	1.4142135623730951	1.4142135623730951
1599591254.04811	1599591254.04811	211.0	5.0	5	1.118033988749895	1.118033988749895
1599591254.6237414	1599591254.6237414	212.0	3.0	3	0.8660254037844386	0.8660254037844386
1599591255.1984775	1599591255.1984775	213.0	6.0	6	1.224744871391589	1.224744871391589
1599591255.776666	1599591255.776666	214.0	13.0	13	1.8027756377319946	1.8027756377319946
1599591256.3591366	1599591256.3591366	215.0	8.0	8	1.4142135623730951	1.4142135623730951
1599591256.9258533	1599591256.9258533	216.0	10.0	10	1.5811388300841898	1.5811388300841898
1599591257.516626	1599591257.516626	217.0	4.0	4	1.0	1.0
1599591258.0830674	1599591258.0830674	218.0	10.0	10	1.5811388300841898	1.5811388300841898
1599591258.6659563	1599591258.6659563	219.0	6.0	6	1.224744871391589	1.224744871391589
1599591259.2452323	1599591259.2452323	220.0	11.0	11	1.6583123951777	1.6583123951777
1599591259.828452	1599591259.828452	221.0	3.0	3	0.8660254037844386	0.8660254037844386
1599591260.401152	1599591260.401152	222.0	3.0	3	0.8660254037844386	0.8660254037844386
1599591260.9810562	1599591260.9810562	223.0	6.0	6	1.224744871391589	1.224744871391589
1599591261.5474508	1599591261.5474508	224.0	3.0	3	0.8660254037844386	0.8660254037844386
1599591262.1352184	1599591262.1352184	225.0	5.0	5	1.118033988749895	1.118033988749895
1599591262.7134225	1599591262.7134225	226.0	5.0	5	1.118033988749895	1.118033988749895
1599591263.2823472	1599591263.2823472	227.0	13.0	13	1.8027756377319946	1.8027756377319946
1599591263.8633132	1599591263.8633132	228.0	8.0	8	1.4142135623730951	1.4142135623730951
1599591264.4773753	1599591264.4773753	229.0	1.0	1	0.5	0.5
1599591265.1221611	1599591265.1221611	230.0	9.0	9	1.5	1.5
1599591265.753263	1599591265.753263	231.0	3.0	3	0.8660254037844386	0.8660254037844386
1599591266.3908896	1599591266.3908896	232.0	5.0	5	1.118033988749895	1.118033988749895
1599591267.0391178	1599591267.0391178	233.0	2.0	2	0.7071067811865476	0.7071067811865476
1599591267.663636	1599591267.663636	234.0	6.0	6	1.224744871391589	1.224744871391589
1599591268.296145	1599591268.296145	235.0	0.0	0	0	0.5
1599591268.934661	1599591268.934661	236.0	3.0	3	0.8660254037844386	0.8660254037844386
1599591269.5726418	1599591269.5726418	237.0	4.0	4	1.0	1.0
1599591270.2055516	1599591270.2055516	238.0	1.0	1	0.5	0.5
1599591270.8360503	1599591270.8360503	239.0	7.0	7	1.3228756555322954	1.3228756555322954
1599591271.4915686	1599591271.4915686	240.0	3.0	3	0.8660254037844386	0.8660254037844386
1599591272.1191638	1599591272.1191638	241.0	2.0	2	0.7071067811865476	0.7071067811865476
1599591272.747184	1599591272.747184	242.0	5.0	5	1.118033988749895	1.118033988749895
1599591273.3956456	1599591273.3956456	243.0	6.0	6	1.224744871391589	1.224744871391589
1599591274.5718362	1599591274.5718362	244.0	5.0	5	1.118033988749895	1.118033988749895
1599591274.659936	1599591274.659936	245.0	4.0	4	1.0	1.0
1599591275.3017602	1599591275.3017602	246.0	1.0	1	0.5	0.5
1599591275.93807	1599591275.93807	247.0	3.0	3	0.8660254037844386	0.8660254037844386
1599591276.9347994	1599591276.9347994	248.0	3.0	3	0.8660254037844386	0.8660254037844386
1599591277.166087	1599591277.166087	249.0	2.0	2	0.7071067811865476	0.7071067811865476
1599591277.7328477	1599591277.7328477	250.0	3.0	3	0.8660254037844386	0.8660254037844386
1599591278.3079216	1599591278.3079216	251.0	3.0	3	0.8660254037844386	0.8660254037844386
1599591278.8796763	1599591278.8796763	252.0	8.0	8	1.4142135623730951	1.4142135623730951
1599591279.4555907	1599591279.4555907	253.0	3.0	3	0.8660254037844386	0.8660254037844386
1599591280.045811	1599591280.045811	254.0	2.0	2	0.7071067811865476	0.7071067811865476
1599591280.6044588	1599591280.6044588	255.0	5.0	5	1.118033988749895	1.118033988749895
1599591281.1750584	1599591281.1750584	256.0	3.0	3	0.8660254037844386	0.8660254037844386
1599591281.7415407	1599591281.7415407	257.0	4.0	4	1.0	1.0
1599591282.3182638	1599591282.3182638	258.0	3.0	3	0.8660254037844386	0.8660254037844386
1599591282.8867264	1599591282.8867264	259.0	3.0	3	0.8660254037844386	0.8660254037844386
1599591283.4663699	1599591283.4663699	260.0	2.0	2	0.7071067811865476	0.7071067811865476
1599591284.0848036	1599591284.0848036	261.0	3.0	3	0.8660254037844386	0.8660254037844386
1599591284.5990887	1599591284.5990887	262.0	4.0	4	1.0	1.0
1599591285.1763155	1599591285.1763155	263.0	2.0	2	0.7071067811865476	0.7071067811865476
1599591285.7446911	1599591285.7446911	264.0	4.0	4	1.0	1.0
1599591286.3199935	1599591286.3199935	265.0	8.0	8	1.4142135623730951	1.4142135623730951
1599591286.8913412	1599591286.8913412	266.0	3.0	3	0.8660254037844386	0.8660254037844386
1599591287.4652739	1599591287.4652739	267.0	4.0	4	1.0	1.0
1599591288.0331473	1599591288.0331473	268.0	1.0	1	0.5	0.5
1599591288.5682561	1599591288.5682561	269.0	4.0	4	1.0	1.0
1599591289.0827591	1599591289.0827591	270.0	4.0	4	1.0	1.0
1599591289.6038632	1599591289.6038632	271.0	6.0	6	1.224744871391589	1.224744871391589
1599591290.120325	1599591290.120325	272.0	2.0	2	0.7071067811865476	0.7071067811865476
1599591290.6372497	1599591290.6372497	273.0	2.0	2	0.7071067811865476	0.7071067811865476
1599591291.153124	1599591291.153124	274.0	5.0	5	1.118033988749895	1.118033988749895
1599591291.6705048	1599591291.6705048	275.0	5.0	5	1.118033988749895	1.118033988749895
1599591292.1822405	1599591292.1822405	276.0	3.0	3	0.8660254037844386	0.8660254037844386
1599591292.6922383	1599591292.6922383	277.0	3.0	3	0.8660254037844386	0.8660254037844386
1599591293.2137454	1599591293.2137454	278.0	1.0	1	0.5	0.5
1599591293.7266557	1599591293.7266557	279.0	2.0	2	0.7071067811865476	0.7071067811865476
1599591294.2397912	1599591294.2397912	280.0	7.0	7	1.3228756555322954	1.3228756555322954
1599591294.74804	1599591294.74804	281.0	1.0	1	0.5	0.5
1599591295.2752333	1599591295.2752333	282.0	3.0	3	0.8660254037844386	0.8660254037844386
1599591296.047392	1599591296.047392	283.0	4.0	4	1.0	1.0
1599591296.302177	1599591296.302177	284.0	4.0	4	1.0	1.0
1599591296.810671	1599591296.810671	285.0	3.0	3	0.8660254037844386	0.8660254037844386
1599591297.3348844	1599591297.3348844	286.0	5.0	5	1.118033988749895	1.118033988749895
1599591297.839612	1599591297.839612	287.0	6.0	6	1.224744871391589	1.224744871391589
1599591298.3549316	1599591298.3549316	288.0	2.0	2	0.7071067811865476	0.7071067811865476
1599591298.8468711	1599591298.8468711	289.0	3.0	3	0.8660254037844386	0.8660254037844386
1599591299.3093436	1599591299.3093436	290.0	5.0	5	1.118033988749895	1.118033988749895
1599591299.8161695	1599591299.8161695	291.0	2.0	2	0.7071067811865476	0.7071067811865476
1599591300.226874	1599591300.226874	292.0	4.0	4	1.0	1.0
1599591300.7009497	1599591300.7009497	293.0	2.0	2	0.7071067811865476	0.7071067811865476
1599591301.16227	1599591301.16227	294.0	9.0	9	1.5	1.5
1599591301.6178966	1599591301.6178966	295.0	2.0	2	0.7071067811865476	0.7071067811865476
1599591302.1228957	1599591302.1228957	296.0	0.0	0	0	0.5
1599591302.5491543	1599591302.5491543	297.0	3.0	3	0.8660254037844386	0.8660254037844386
1599591303.014532	1599591303.014532	298.0	2.0	2	0.7071067811865476	0.7071067811865476
1599591303.4733994	1599591303.4733994	299.0	1.0	1	0.5	0.5
1599591303.9446971	1599591303.9446971	300.0	5.0	5	1.118033988749895	1.118033988749895
1599591304.4073613	1599591304.4073613	301.0	5.0	5	1.118033988749895	1.118033988749895
1599591304.8607426	1599591304.8607426	302.0	5.0	5	1.118033988749895	1.118033988749895
1599591305.3274565	1599591305.3274565	303.0	2.0	2	0.7071067811865476	0.7071067811865476
1599591305.7916052	1599591305.7916052	304.0	7.0	7	1.3228756555322954	1.3228756555322954
1599591306.2636833	1599591306.2636833	305.0	4.0	4	1.0	1.0
1599591306.7283905	1599591306.7283905	306.0	6.0	6	1.224744871391589	1.224744871391589
1599591307.1792338	1599591307.1792338	307.0	2.0	2	0.7071067811865476	0.7071067811865476
1599591307.6549547	1599591307.6549547	308.0	2.0	2	0.7071067811865476	0.7071067811865476
1599591308.0867088	1599591308.0867088	309.0	3.0	3	0.8660254037844386	0.8660254037844386
1599591308.5000975	1599591308.5000975	310.0	4.0	4	1.0	1.0
1599591308.9242175	1599591308.9242175	311.0	3.0	3	0.8660254037844386	0.8660254037844386
1599591309.3368008	1599591309.3368008	312.0	4.0	4	1.0	1.0
1599591309.7622993	1599591309.7622993	313.0	2.0	2	0.7071067811865476	0.7071067811865476
1599591310.1680486	1599591310.1680486	314.0	7.0	7	1.3228756555322954	1.3228756555322954
1599591310.5807478	1599591310.5807478	315.0	5.0	5	1.118033988749895	1.118033988749895
1599591311.0031586	1599591311.0031586	316.0	4.0	4	1.0	1.0
1599591311.4239533	1599591311.4239533	317.0	2.0	2	0.7071067811865476	0.7071067811865476
1599591311.8397577	1599591311.8397577	318.0	4.0	4	1.0	1.0
1599591312.251561	1599591312.251561	319.0	12.0	12	1.7320508075688772	1.7320508075688772
1599591312.6751988	1599591312.6751988	320.0	8.0	8	1.4142135623730951	1.4142135623730951
1599591313.0917115	1599591313.0917115	321.0	6.0	6	1.224744871391589	1.224744871391589
1599591313.5015209	1599591313.5015209	322.0	7.0	7	1.3228756555322954	1.3228756555322954
1599591313.9253674	1599591313.9253674	323.0	1.0	1	0.5	0.5
1599591314.3366942	1599591314.3366942	324.0	3.0	3	0.8660254037844386	0.8660254037844386
1599591314.7584193	1599591314.7584193	325.0	4.0	4	1.0	1.0
1599591315.1771746	1599591315.1771746	326.0	5.0	5	1.118033988749895	1.118033988749895
1599591315.5912125	1599591315.5912125	327.0	4.0	4	1.0	1.0
1599591316.0049398	1599591316.0049398	328.0	6.0	6	1.224744871391589	1.224744871391589
1599591316.4849687	1599591316.4849687	329.0	3.0	3	0.8660254037844386	0.8660254037844386
1599591316.9842312	1599591316.9842312	330.0	3.0	3	0.8660254037844386	0.8660254037844386
1599591317.488423	1599591317.488423	331.0	9.0	9	1.5	1.5
1599591317.980402	1599591317.980402	332.0	9.0	9	1.5	1.5
1599591318.4864347	1599591318.4864347	333.0	8.0	8	1.4142135623730951	1.4142135623730951
1599591318.9809105	1599591318.9809105	334.0	11.0	11	1.6583123951777	1.6583123951777
1599591319.477995	1599591319.477995	335.0	10.0	10	1.5811388300841898	1.5811388300841898
1599591319.9804242	1599591319.9804242	336.0	2.0	2	0.7071067811865476	0.7071067811865476
1599591320.4773033	1599591320.4773033	337.0	4.0	4	1.0	1.0
1599591321.0049496	1599591321.0049496	338.0	3.0	3	0.8660254037844386	0.8660254037844386
1599591321.4804192	1599591321.4804192	339.0	9.0	9	1.5	1.5
1599591321.9869945	1599591321.9869945	340.0	6.0	6	1.224744871391589	1.224744871391589
1599591322.4853535	1599591322.4853535	341.0	5.0	5	1.118033988749895	1.118033988749895
1599591322.9850993	1599591322.9850993	342.0	4.0	4	1.0	1.0
1599591323.479172	1599591323.479172	343.0	6.0	6	1.224744871391589	1.224744871391589
1599591323.9859405	1599591323.9859405	344.0	7.0	7	1.3228756555322954	1.3228756555322954
1599591324.4833567	1599591324.4833567	345.0	9.0	9	1.5	1.5
1599591324.9793153	1599591324.9793153	346.0	6.0	6	1.224744871391589	1.224744871391589
1599591325.48415	1599591325.48415	347.0	8.0	8	1.4142135623730951	1.4142135623730951
1599591325.9829242	1599591325.9829242	348.0	8.0	8	1.4142135623730951	1.4142135623730951
1599591326.4879704	1599591326.4879704	349.0	3.0	3	0.8660254037844386	0.8660254037844386
1599591326.980449	1599591326.980449	350.0	5.0	5	1.118033988749895	1.118033988749895
1599591327.4807122	1599591327.4807122	351.0	6.0	6	1.224744871391589	1.224744871391589
1599591327.9832985	1599591327.9832985	352.0	4.0	4	1.0	1.0
1599591328.4802096	1599591328.4802096	353.0	4.0	4	1.0	1.0
1599591328.9858832	1599591328.9858832	354.0	3.0	3	0.8660254037844386	0.8660254037844386
1599591329.4818475	1599591329.4818475	355.0	3.0	3	0.8660254037844386	0.8660254037844386
1599591329.9846637	1599591329.9846637	356.0	4.0	4	1.0	1.0
1599591330.4817445	1599591330.4817445	357.0	2.0	2	0.7071067811865476	0.7071067811865476
1599591330.9849358	1599591330.9849358	358.0	4.0	4	1.0	1.0
1599591331.4828608	1599591331.4828608	359.0	5.0	5	1.118033988749895	1.118033988749895
1599591331.9838023	1599591331.9838023	360.0	2.0	2	0.7071067811865476	0.7071067811865476
1599591332.4853177	1599591332.4853177	361.0	3.0	3	0.8660254037844386	0.8660254037844386
1599591332.9830706	1599591332.9830706	362.0	4.0	4	1.0	1.0
1599591333.4821773	1599591333.4821773	363.0	8.0	8	1.4142135623730951	1.4142135623730951
1599591333.9922123	1599591333.9922123	364.0	3.0	3	0.8660254037844386	0.8660254037844386
1599591334.482118	1599591334.482118	365.0	0.0	0	0	0.5
1599591334.985094	1599591334.985094	366.0	6.0	6	1.224744871391589	1.224744871391589
1599591335.914052	1599591335.914052	367.0	1.0	1	0.5	0.5
1599591335.9886525	1599591335.9886525	368.0	2.0	2	0.7071067811865476	0.7071067811865476
1599591336.4869723	1599591336.4869723	369.0	3.0	3	0.8660254037844386	0.8660254037844386
1599591336.987941	1599591336.987941	370.0	5.0	5	1.118033988749895	1.118033988749895
1599591337.4837916	1599591337.4837916	371.0	6.0	6	1.224744871391589	1.224744871391589
1599591337.9830997	1599591337.9830997	372.0	5.0	5	1.118033988749895	1.118033988749895
1599591338.4865396	1599591338.4865396	373.0	6.0	6	1.224744871391589	1.224744871391589
1599591338.993702	1599591338.993702	374.0	1.0	1	0.5	0.5
1599591339.4838784	1599591339.4838784	375.0	3.0	3	0.8660254037844386	0.8660254037844386
1599591339.9905818	1599591339.9905818	376.0	3.0	3	0.8660254037844386	0.8660254037844386
1599591340.4884531	1599591340.4884531	377.0	3.0	3	0.8660254037844386	0.8660254037844386
1599591340.9954762	1599591340.9954762	378.0	4.0	4	1.0	1.0
1599591341.4837527	1599591341.4837527	379.0	1.0	1	0.5	0.5
1599591341.9924147	1599591341.9924147	380.0	2.0	2	0.7071067811865476	0.7071067811865476
1599591342.4900677	1599591342.4900677	381.0	6.0	6	1.224744871391589	1.224744871391589
1599591342.9921286	1599591342.9921286	382.0	5.0	5	1.118033988749895	1.118033988749895
1599591343.4859633	1599591343.4859633	383.0	2.0	2	0.7071067811865476	0.7071067811865476
1599591344.073302	1599591344.073302	384.0	2.0	2	0.7071067811865476	0.7071067811865476
1599591344.4944031	1599591344.4944031	385.0	4.0	4	1.0	1.0
1599591344.9935062	1599591344.9935062	386.0	3.0	3	0.8660254037844386	0.8660254037844386
1599591345.4836376	1599591345.4836376	387.0	3.0	3	0.8660254037844386	0.8660254037844386
1599591345.9952018	1599591345.9952018	388.0	2.0	2	0.7071067811865476	0.7071067811865476
1599591346.493546	1599591346.493546	389.0	8.0	8	1.4142135623730951	1.4142135623730951
1599591346.9889076	1599591346.9889076	390.0	3.0	3	0.8660254037844386	0.8660254037844386
1599591347.4889858	1599591347.4889858	391.0	3.0	3	0.8660254037844386	0.8660254037844386
1599591347.994367	1599591347.994367	392.0	3.0	3	0.8660254037844386	0.8660254037844386
1599591348.4891846	1599591348.4891846	393.0	5.0	5	1.118033988749895	1.118033988749895
1599591348.9918478	1599591348.9918478	394.0	2.0	2	0.7071067811865476	0.7071067811865476
1599591349.4854157	1599591349.4854157	395.0	1.0	1	0.5	0.5
1599591349.9874146	1599591349.9874146	396.0	3.0	3	0.8660254037844386	0.8660254037844386
1599591350.498513	1599591350.498513	397.0	2.0	2	0.7071067811865476	0.7071067811865476
1599591350.9933531	1599591350.9933531	398.0	1.0	1	0.5	0.5
1599591351.487466	1599591351.487466	399.0	6.0	6	1.224744871391589	1.224744871391589
1599591351.9998028	1599591351.9998028	400.0	7.0	7	1.3228756555322954	1.3228756555322954
1599591352.4972305	1599591352.4972305	401.0	4.0	4	1.0	1.0
1599591352.9925623	1599591352.9925623	402.0	4.0	4	1.0	1.0
1599591353.6408007	1599591353.6408007	403.0	1.0	1	0.5	0.5
1599591353.9914064	1599591353.9914064	404.0	2.0	2	0.7071067811865476	0.7071067811865476
1599591354.4906857	1599591354.4906857	405.0	0.0	0	0	0.5
1599591354.9987226	1599591354.9987226	406.0	3.0	3	0.8660254037844386	0.8660254037844386
1599591355.4947293	1599591355.4947293	407.0	3.0	3	0.8660254037844386	0.8660254037844386
1599591355.9967086	1599591355.9967086	408.0	7.0	7	1.3228756555322954	1.3228756555322954
1599591356.4974055	1599591356.4974055	409.0	5.0	5	1.118033988749895	1.118033988749895
1599591356.9927442	1599591356.9927442	410.0	1.0	1	0.5	0.5
1599591357.4936447	1599591357.4936447	411.0	5.0	5	1.118033988749895	1.118033988749895
1599591357.994573	1599591357.994573	412.0	5.0	5	1.118033988749895	1.118033988749895
1599591358.4962013	1599591358.4962013	413.0	4.0	4	1.0	1.0
1599591358.9956286	1599591358.9956286	414.0	2.0	2	0.7071067811865476	0.7071067811865476
1599591359.5008183	1599591359.5008183	415.0	2.0	2	0.7071067811865476	0.7071067811865476
1599591360.0938804	1599591360.0938804	416.0	5.0	5	1.118033988749895	1.118033988749895
1599591360.5018132	1599591360.5018132	417.0	1.0	1	0.5	0.5
1599591360.9897602	1599591360.9897602	418.0	4.0	4	1.0	1.0
1599591361.497967	1599591361.497967	419.0	1.0	1	0.5	0.5
1599591362.3016584	1599591362.3016584	420.0	1.0	1	0.5	0.5
1599591362.889061	1599591362.889061	421.0	4.0	4	1.0	1.0
1599591363.1362112	1599591363.1362112	422.0	6.0	6	1.224744871391589	1.224744871391589
1599591363.501376	1599591363.501376	423.0	2.0	2	0.7071067811865476	0.7071067811865476
1599591363.9960034	1599591363.9960034	424.0	3.0	3	0.8660254037844386	0.8660254037844386
1599591364.492609	1599591364.492609	425.0	4.0	4	1.0	1.0
1599591364.9920182	1599591364.9920182	426.0	0.0	0	0	0.5
1599591365.4977665	1599591365.4977665	427.0	3.0	3	0.8660254037844386	0.8660254037844386
1599591365.9928668	1599591365.9928668	428.0	4.0	4	1.0	1.0
1599591366.461931	1599591366.461931	429.0	2.0	2	0.7071067811865476	0.7071067811865476
1599591366.9206343	1599591366.9206343	430.0	4.0	4	1.0	1.0
1599591367.3649828	1599591367.3649828	431.0	4.0	4	1.0	1.0
1599591367.8204257	1599591367.8204257	432.0	3.0	3	0.8660254037844386	0.8660254037844386
1599591368.2666004	1599591368.2666004	433.0	1.0	1	0.5	0.5
1599591368.7237487	1599591368.7237487	434.0	1.0	1	0.5	0.5
1599591369.1696424	1599591369.1696424	435.0	4.0	4	1.0	1.0
1599591369.6141527	1599591369.6141527	436.0	7.0	7	1.3228756555322954	1.3228756555322954
1599591370.061989	1599591370.061989	437.0	6.0	6	1.224744871391589	1.224744871391589
1599591370.5182433	1599591370.5182433	438.0	5.0	5	1.118033988749895	1.118033988749895
1599591370.973764	1599591370.973764	439.0	2.0	2	0.7071067811865476	0.7071067811865476
1599591371.4177089	1599591371.4177089	440.0	3.0	3	0.8660254037844386	0.8660254037844386
1599591371.8782253	1599591371.8782253	441.0	3.0	3	0.8660254037844386	0.8660254037844386
1599591372.313493	1599591372.313493	442.0	1.0	1	0.5	0.5
1599591372.7657294	1599591372.7657294	443.0	4.0	4	1.0	1.0
1599591373.2213254	1599591373.2213254	444.0	6.0	6	1.224744871391589	1.224744871391589
1599591373.6681495	1599591373.6681495	445.0	7.0	7	1.3228756555322954	1.3228756555322954
1599591374.1161926	1599591374.1161926	446.0	2.0	2	0.7071067811865476	0.7071067811865476
1599591374.5725608	1599591374.5725608	447.0	1.0	1	0.5	0.5
1599591375.0235357	1599591375.0235357	448.0	4.0	4	1.0	1.0
1599591375.496827	1599591375.496827	449.0	2.0	2	0.7071067811865476	0.7071067811865476
1599591376.0047333	1599591376.0047333	450.0	7.0	7	1.3228756555322954	1.3228756555322954
1599591376.4909418	1599591376.4909418	451.0	3.0	3	0.8660254037844386	0.8660254037844386
1599591376.9819896	1599591376.9819896	452.0	5.0	5	1.118033988749895	1.118033988749895
1599591377.5555215	1599591377.5555215	453.0	2.0	2	0.7071067811865476	0.7071067811865476
1599591377.9666023	1599591377.9666023	454.0	4.0	4	1.0	1.0
1599591378.4647698	1599591378.4647698	455.0	8.0	8	1.4142135623730951	1.4142135623730951
1599591378.9689229	1599591378.9689229	456.0	7.0	7	1.3228756555322954	1.3228756555322954
1599591379.4554942	1599591379.4554942	457.0	4.0	4	1.0	1.0
1599591379.956206	1599591379.956206	458.0	6.0	6	1.224744871391589	1.224744871391589
1599591380.445236	1599591380.445236	459.0	12.0	12	1.7320508075688772	1.7320508075688772
1599591380.9472933	1599591380.9472933	460.0	4.0	4	1.0	1.0
1599591381.433711	1599591381.433711	461.0	3.0	3	0.8660254037844386	0.8660254037844386
1599591381.9368308	1599591381.9368308	462.0	10.0	10	1.5811388300841898	1.5811388300841898
1599591382.429291	1599591382.429291	463.0	6.0	6	1.224744871391589	1.224744871391589
1599591382.9228032	1599591382.9228032	464.0	6.0	6	1.224744871391589	1.224744871391589
1599591383.4139585	1599591383.4139585	465.0	5.0	5	1.118033988749895	1.118033988749895
1599591383.920412	1599591383.920412	466.0	8.0	8	1.4142135623730951	1.4142135623730951
1599591384.407789	1599591384.407789	467.0	6.0	6	1.224744871391589	1.224744871391589
1599591384.9006655	1599591384.9006655	468.0	6.0	6	1.224744871391589	1.224744871391589
1599591385.4420073	1599591385.4420073	469.0	4.0	4	1.0	1.0
1599591385.9785867	1599591385.9785867	470.0	6.0	6	1.224744871391589	1.224744871391589
1599591386.5302458	1599591386.5302458	471.0	8.0	8	1.4142135623730951	1.4142135623730951
1599591387.0761802	1599591387.0761802	472.0	4.0	4	1.0	1.0
1599591387.6148515	1599591387.6148515	473.0	7.0	7	1.3228756555322954	1.3228756555322954
1599591388.1577268	1599591388.1577268	474.0	8.0	8	1.4142135623730951	1.4142135623730951
1599591388.6970844	1599591388.6970844	475.0	3.0	3	0.8660254037844386	0.8660254037844386
1599591389.2508755	1599591389.2508755	476.0	4.0	4	1.0	1.0
1599591389.795798	1599591389.795798	477.0	0.0	0	0	0.5
1599591390.3348858	1599591390.3348858	478.0	3.0	3	0.8660254037844386	0.8660254037844386
1599591390.875212	1599591390.875212	479.0	5.0	5	1.118033988749895	1.118033988749895
1599591391.4193451	1599591391.4193451	480.0	3.0	3	0.8660254037844386	0.8660254037844386
1599591391.9695263	1599591391.9695263	481.0	4.0	4	1.0	1.0
1599591392.5136185	1599591392.5136185	482.0	9.0	9	1.5	1.5
1599591393.0522716	1599591393.0522716	483.0	2.0	2	0.7071067811865476	0.7071067811865476
1599591393.61122	1599591393.61122	484.0	3.0	3	0.8660254037844386	0.8660254037844386
1599591394.147079	1599591394.147079	485.0	4.0	4	1.0	1.0
1599591394.6893573	1599591394.6893573	486.0	5.0	5	1.118033988749895	1.118033988749895
1599591395.2359154	1599591395.2359154	487.0	1.0	1	0.5	0.5
1599591395.790709	1599591395.790709	488.0	3.0	3	0.8660254037844386	0.8660254037844386
1599591396.3603363	1599591396.3603363	489.0	3.0	3	0.8660254037844386	0.8660254037844386
1599591397.268977	1599591397.268977	490.0	3.0	3	0.8660254037844386	0.8660254037844386
1599591397.56385	1599591397.56385	491.0	1.0	1	0.5	0.5
1599591398.2204995	1599591398.2204995	492.0	6.0	6	1.224744871391589	1.224744871391589
1599591398.7605238	1599591398.7605238	493.0	2.0	2	0.7071067811865476	0.7071067811865476
1599591399.357993	1599591399.357993	494.0	4.0	4	1.0	1.0
1599591399.970411	1599591399.970411	495.0	4.0	4	1.0	1.0
1599591400.557176	1599591400.557176	496.0	0.0	0	0	0.5
1599591401.1542203	1599591401.1542203	497.0	6.0	6	1.224744871391589	1.224744871391589
1599591401.753993	1599591401.753993	498.0	5.0	5	1.118033988749895	1.118033988749895
1599591402.3674762	1599591402.3674762	499.0	2.0	2	0.7071067811865476	0.7071067811865476
1599591402.9546504	1599591402.9546504	500.0	4.0	4	1.0	1.0