# <?xml version="1.0" ?>
# <DataFileHeader>
#   <Variables>
#     <Element name="PulseProgram" type="dict">
#       <Element name="PulseProgram" type="str">C:/Users/ions/Documents/IonControl/project_dir/QuditLab/config/PulseProgramsPlus/Ablation_NeutralFluorescence.ppp</Element>
#       <Element name="NULL" type="Quantity">0</Element>
#       <Element name="FFFFFFFF" type="Quantity">18446744073709551615</Element>
#       <Element name="INTERRUPT_EXITCODE" type="Quantity">18446198715942174720</Element>
#       <Element name="InitializationShutter" type="int">5154</Element>
#       <Element name="NaturalAblation_mask" type="int">256</Element>
#       <Element name="NaturalAblation" type="int">256</Element>
#       <Element name="EndShutter" type="int">5154</Element>
#       <Element name="ShutterDelayTime" type="Quantity">0.5 s</Element>
#       <Element name="WindowStartTime" type="Quantity">145 us</Element>
#       <Element name="DetectTime" type="Quantity">20 us</Element>
#       <Element name="DummyVar" type="int">0</Element>
#       <Element name="experiments" type="int">1</Element>
#       <Element name="DetectCounters" type="int">1</Element>
#       <Element name="endLabel" type="Quantity">18446744073709551615</Element>
#       <Element name="experimentsleft" type="Quantity">100</Element>
#       <Element name="currentexperiment" type="Quantity">0</Element>
#       <Element name="inlinevar_1" type="Quantity">1</Element>
#     </Element>
#     <Element name="Scan" type="dict">
#       <Element name="scanParameter" type="str">DummyVar</Element>
#       <Element name="scanTarget" type="str">Internal</Element>
#       <Element name="scantype" type="int">0</Element>
#       <Element name="scanMode" type="int">0</Element>
#       <Element name="xUnit" type="str"></Element>
#       <Element name="xExpression" type="str"></Element>
#       <Element name="loadPP" type="bool">True</Element>
#       <Element name="loadPPName" type="str">Ablation_NeutralFluorescence_Rad.ppp</Element>
#       <Element name="parallelInternalScanParameter" type="str">None</Element>
#     </Element>
#     <ColumnSpec>timeTickFirst, timeTickLast, x, PMT Count, PMT Count_raw, PMT Count_bottom, PMT Count_top</ColumnSpec>
#     <Element name="comment" type="str"></Element>
#     <Element name="lastDataAquired" type="datetime">2020-09-08 18:34:56.300565+00:00</Element>
#     <Element name="name" type="str"></Element>
#     <Element name="traceCreation" type="datetime">2020-09-08 18:31:48.806028+00:00</Element>
#     <Element name="traceFinalized" type="datetime">2020-09-08 18:34:56.428514+00:00</Element>
#     <TracePlottingList>
#       <TracePlotting _bottomColumn="PMT Count_bottom" _filtColumn="None" _fitFunction="None" _heightColumn="height" _rawColumn="PMT Count_raw" _topColumn="PMT Count_top" _xColumn="x" _yColumn="PMT Count" fill="True" name="PMT Count" properties="&lt;trace.PlottedTrace.PlottedTraceProperties object at 0x000002A98497AC18&gt;" style="0" type="0" windowName="Scan Data" xAxisLabel="DummyVar" xAxisUnit="" yAxisLabel="None">
#         <PlottedTraceProperties averageSameX="False" averageType="0" combinePoints="0"/>
#       </TracePlotting>
#     </TracePlottingList>
#   </Variables>
# </DataFileHeader>
1599589907.6354272	1599589907.6354272	1.0	8.0	8	1.4142135623730951	1.4142135623730951
1599589908.8033085	1599589908.8033085	2.0	2.0	2	0.7071067811865476	0.7071067811865476
1599589909.3823602	1599589909.3823602	3.0	3.0	3	0.8660254037844386	0.8660254037844386
1599589909.944706	1599589909.944706	4.0	4.0	4	1.0	1.0
1599589910.5279152	1599589910.5279152	5.0	3.0	3	0.8660254037844386	0.8660254037844386
1599589911.097551	1599589911.097551	6.0	3.0	3	0.8660254037844386	0.8660254037844386
1599589911.6564822	1599589911.6564822	7.0	3.0	3	0.8660254037844386	0.8660254037844386
1599589912.2475014	1599589912.2475014	8.0	4.0	4	1.0	1.0
1599589912.8130128	1599589912.8130128	9.0	3.0	3	0.8660254037844386	0.8660254037844386
1599589913.3992069	1599589913.3992069	10.0	2.0	2	0.7071067811865476	0.7071067811865476
1599589913.953068	1599589913.953068	11.0	1.0	1	0.5	0.5
1599589914.5258088	1599589914.5258088	12.0	3.0	3	0.8660254037844386	0.8660254037844386
1599589915.0985377	1599589915.0985377	13.0	3.0	3	0.8660254037844386	0.8660254037844386
1599589915.6712039	1599589915.6712039	14.0	1.0	1	0.5	0.5
1599589916.2501664	1599589916.2501664	15.0	4.0	4	1.0	1.0
1599589916.8335085	1599589916.8335085	16.0	5.0	5	1.118033988749895	1.118033988749895
1599589917.4451382	1599589917.4451382	17.0	5.0	5	1.118033988749895	1.118033988749895
1599589918.0874667	1599589918.0874667	18.0	0.0	0	0	0.5
1599589918.717654	1599589918.717654	19.0	6.0	6	1.224744871391589	1.224744871391589
1599589919.355343	1599589919.355343	20.0	7.0	7	1.3228756555322954	1.3228756555322954
1599589919.959464	1599589919.959464	21.0	4.0	4	1.0	1.0
1599589920.608469	1599589920.608469	22.0	0.0	0	0	0.5
1599589921.2260823	1599589921.2260823	23.0	2.0	2	0.7071067811865476	0.7071067811865476
1599589921.859905	1599589921.859905	24.0	3.0	3	0.8660254037844386	0.8660254037844386
1599589922.492593	1599589922.492593	25.0	4.0	4	1.0	1.0
1599589923.1201847	1599589923.1201847	26.0	0.0	0	0	0.5
1599589923.7518332	1599589923.7518332	27.0	3.0	3	0.8660254037844386	0.8660254037844386
1599589924.3872945	1599589924.3872945	28.0	4.0	4	1.0	1.0
1599589925.0028856	1599589925.0028856	29.0	6.0	6	1.224744871391589	1.224744871391589
1599589925.6268735	1599589925.6268735	30.0	1.0	1	0.5	0.5
1599589926.26201	1599589926.26201	31.0	4.0	4	1.0	1.0
1599589926.8909497	1599589926.8909497	32.0	2.0	2	0.7071067811865476	0.7071067811865476
1599589927.5205853	1599589927.5205853	33.0	3.0	3	0.8660254037844386	0.8660254037844386
1599589928.1447253	1599589928.1447253	34.0	6.0	6	1.224744871391589	1.224744871391589
1599589928.7924304	1599589928.7924304	35.0	3.0	3	0.8660254037844386	0.8660254037844386
1599589929.4196255	1599589929.4196255	36.0	5.0	5	1.118033988749895	1.118033988749895
1599589930.1112175	1599589930.1112175	37.0	3.0	3	0.8660254037844386	0.8660254037844386
1599589930.8010418	1599589930.8010418	38.0	1.0	1	0.5	0.5
1599589931.4948316	1599589931.4948316	39.0	5.0	5	1.118033988749895	1.118033988749895
1599589932.1889036	1599589932.1889036	40.0	1.0	1	0.5	0.5
1599589932.8781898	1599589932.8781898	41.0	3.0	3	0.8660254037844386	0.8660254037844386
1599589933.571395	1599589933.571395	42.0	1.0	1	0.5	0.5
1599589934.2686665	1599589934.2686665	43.0	1.0	1	0.5	0.5
1599589934.9564118	1599589934.9564118	44.0	0.0	0	0	0.5
1599589935.650115	1599589935.650115	45.0	1.0	1	0.5	0.5
1599589936.3407657	1599589936.3407657	46.0	3.0	3	0.8660254037844386	0.8660254037844386
1599589937.0315857	1599589937.0315857	47.0	0.0	0	0	0.5
1599589937.7233303	1599589937.7233303	48.0	3.0	3	0.8660254037844386	0.8660254037844386
1599589938.429904	1599589938.429904	49.0	3.0	3	0.8660254037844386	0.8660254037844386
1599589939.1192822	1599589939.1192822	50.0	2.0	2	0.7071067811865476	0.7071067811865476
1599589939.8000267	1599589939.8000267	51.0	6.0	6	1.224744871391589	1.224744871391589
1599589940.5167706	1599589940.5167706	52.0	3.0	3	0.8660254037844386	0.8660254037844386
1599589941.1982102	1599589941.1982102	53.0	1.0	1	0.5	0.5
1599589941.8986158	1599589941.8986158	54.0	2.0	2	0.7071067811865476	0.7071067811865476
1599589942.5753016	1599589942.5753016	55.0	1.0	1	0.5	0.5
1599589943.2758777	1599589943.2758777	56.0	2.0	2	0.7071067811865476	0.7071067811865476
1599589944.0349803	1599589944.0349803	57.0	1.0	1	0.5	0.5
1599589944.7884219	1599589944.7884219	58.0	3.0	3	0.8660254037844386	0.8660254037844386
1599589945.5226738	1599589945.5226738	59.0	3.0	3	0.8660254037844386	0.8660254037844386
1599589946.281316	1599589946.281316	60.0	0.0	0	0	0.5
1599589947.0163014	1599589947.0163014	61.0	1.0	1	0.5	0.5
1599589947.7805252	1599589947.7805252	62.0	4.0	4	1.0	1.0
1599589948.5293033	1599589948.5293033	63.0	2.0	2	0.7071067811865476	0.7071067811865476
1599589949.2700615	1599589949.2700615	64.0	3.0	3	0.8660254037844386	0.8660254037844386
1599589950.019131	1599589950.019131	65.0	4.0	4	1.0	1.0
1599589950.9505181	1599589950.9505181	66.0	3.0	3	0.8660254037844386	0.8660254037844386
1599589951.516504	1599589951.516504	67.0	5.0	5	1.118033988749895	1.118033988749895
1599589952.2961464	1599589952.2961464	68.0	2.0	2	0.7071067811865476	0.7071067811865476
1599589953.0224452	1599589953.0224452	69.0	3.0	3	0.8660254037844386	0.8660254037844386
1599589953.7803166	1599589953.7803166	70.0	3.0	3	0.8660254037844386	0.8660254037844386
1599589954.5270493	1599589954.5270493	71.0	1.0	1	0.5	0.5
1599589955.2738676	1599589955.2738676	72.0	6.0	6	1.224744871391589	1.224744871391589
1599589956.0196018	1599589956.0196018	73.0	2.0	2	0.7071067811865476	0.7071067811865476
1599589956.777881	1599589956.777881	74.0	5.0	5	1.118033988749895	1.118033988749895
1599589957.5380104	1599589957.5380104	75.0	1.0	1	0.5	0.5
1599589958.271054	1599589958.271054	76.0	4.0	4	1.0	1.0
1599589958.9473517	1599589958.9473517	77.0	3.0	3	0.8660254037844386	0.8660254037844386
1599589959.6263506	1599589959.6263506	78.0	4.0	4	1.0	1.0
1599589960.2893853	1599589960.2893853	79.0	4.0	4	1.0	1.0
1599589960.970848	1599589960.970848	80.0	3.0	3	0.8660254037844386	0.8660254037844386
1599589961.6459916	1599589961.6459916	81.0	5.0	5	1.118033988749895	1.118033988749895
1599589962.3216383	1599589962.3216383	82.0	3.0	3	0.8660254037844386	0.8660254037844386
1599589963.0007205	1599589963.0007205	83.0	5.0	5	1.118033988749895	1.118033988749895
1599589963.6871123	1599589963.6871123	84.0	7.0	7	1.3228756555322954	1.3228756555322954
1599589964.351256	1599589964.351256	85.0	7.0	7	1.3228756555322954	1.3228756555322954
1599589965.0228682	1599589965.0228682	86.0	0.0	0	0	0.5
1599589965.6977105	1599589965.6977105	87.0	9.0	9	1.5	1.5
1599589966.377273	1599589966.377273	88.0	2.0	2	0.7071067811865476	0.7071067811865476
1599589967.0400908	1599589967.0400908	89.0	3.0	3	0.8660254037844386	0.8660254037844386
1599589967.7175229	1599589967.7175229	90.0	1.0	1	0.5	0.5
1599589968.4068878	1599589968.4068878	91.0	0.0	0	0	0.5
1599589969.0752225	1599589969.0752225	92.0	2.0	2	0.7071067811865476	0.7071067811865476
1599589969.7437208	1599589969.7437208	93.0	4.0	4	1.0	1.0
1599589970.4274638	1599589970.4274638	94.0	6.0	6	1.224744871391589	1.224744871391589
1599589971.107719	1599589971.107719	95.0	7.0	7	1.3228756555322954	1.3228756555322954
1599589971.776057	1599589971.776057	96.0	4.0	4	1.0	1.0
1599589972.3750942	1599589972.3750942	97.0	1.0	1	0.5	0.5
1599589972.9870627	1599589972.9870627	98.0	4.0	4	1.0	1.0
1599589973.5996177	1599589973.5996177	99.0	1.0	1	0.5	0.5
1599589974.1996794	1599589974.1996794	100.0	2.0	2	0.7071067811865476	0.7071067811865476
1599589974.8001165	1599589974.8001165	101.0	4.0	4	1.0	1.0
1599589975.416624	1599589975.416624	102.0	1.0	1	0.5	0.5
1599589976.027282	1599589976.027282	103.0	0.0	0	0	0.5
1599589976.634408	1599589976.634408	104.0	3.0	3	0.8660254037844386	0.8660254037844386
1599589977.245054	1599589977.245054	105.0	5.0	5	1.118033988749895	1.118033988749895
1599589977.8536782	1599589977.8536782	106.0	2.0	2	0.7071067811865476	0.7071067811865476
1599589978.4592426	1599589978.4592426	107.0	4.0	4	1.0	1.0
1599589979.0793185	1599589979.0793185	108.0	3.0	3	0.8660254037844386	0.8660254037844386
1599589979.674607	1599589979.674607	109.0	2.0	2	0.7071067811865476	0.7071067811865476
1599589980.5417187	1599589980.5417187	110.0	2.0	2	0.7071067811865476	0.7071067811865476
1599589980.885255	1599589980.885255	111.0	0.0	0	0	0.5
1599589981.588562	1599589981.588562	112.0	0.0	0	0	0.5
1599589982.1069567	1599589982.1069567	113.0	2.0	2	0.7071067811865476	0.7071067811865476
1599589982.7144916	1599589982.7144916	114.0	1.0	1	0.5	0.5
1599589983.3119297	1599589983.3119297	115.0	2.0	2	0.7071067811865476	0.7071067811865476
1599589983.9233208	1599589983.9233208	116.0	3.0	3	0.8660254037844386	0.8660254037844386
1599589984.4694705	1599589984.4694705	117.0	1.0	1	0.5	0.5
1599589985.0141695	1599589985.0141695	118.0	7.0	7	1.3228756555322954	1.3228756555322954
1599589985.5586324	1599589985.5586324	119.0	1.0	1	0.5	0.5
1599589986.0963557	1599589986.0963557	120.0	2.0	2	0.7071067811865476	0.7071067811865476
1599589986.6428068	1599589986.6428068	121.0	3.0	3	0.8660254037844386	0.8660254037844386
1599589987.2006574	1599589987.2006574	122.0	3.0	3	0.8660254037844386	0.8660254037844386
1599589987.7391887	1599589987.7391887	123.0	4.0	4	1.0	1.0
1599589988.2969115	1599589988.2969115	124.0	4.0	4	1.0	1.0
1599589988.8331325	1599589988.8331325	125.0	1.0	1	0.5	0.5
1599589989.390915	1599589989.390915	126.0	2.0	2	0.7071067811865476	0.7071067811865476
1599589989.9316814	1599589989.9316814	127.0	0.0	0	0	0.5
1599589990.4743114	1599589990.4743114	128.0	0.0	0	0	0.5
1599589991.0320978	1599589991.0320978	129.0	4.0	4	1.0	1.0
1599589991.574473	1599589991.574473	130.0	2.0	2	0.7071067811865476	0.7071067811865476
1599589992.1172795	1599589992.1172795	131.0	3.0	3	0.8660254037844386	0.8660254037844386
1599589992.6723707	1599589992.6723707	132.0	7.0	7	1.3228756555322954	1.3228756555322954
1599589993.2116659	1599589993.2116659	133.0	1.0	1	0.5	0.5
1599589993.7602954	1599589993.7602954	134.0	5.0	5	1.118033988749895	1.118033988749895
1599589994.3106613	1599589994.3106613	135.0	5.0	5	1.118033988749895	1.118033988749895
1599589994.855179	1599589994.855179	136.0	6.0	6	1.224744871391589	1.224744871391589
1599589995.335466	1599589995.335466	137.0	5.0	5	1.118033988749895	1.118033988749895
1599589995.836867	1599589995.836867	138.0	2.0	2	0.7071067811865476	0.7071067811865476
1599589996.3262491	1599589996.3262491	139.0	1.0	1	0.5	0.5
1599589996.8180354	1599589996.8180354	140.0	2.0	2	0.7071067811865476	0.7071067811865476
1599589997.3114479	1599589997.3114479	141.0	3.0	3	0.8660254037844386	0.8660254037844386
1599589997.805821	1599589997.805821	142.0	4.0	4	1.0	1.0
1599589998.2895095	1599589998.2895095	143.0	5.0	5	1.118033988749895	1.118033988749895
1599589998.7926068	1599589998.7926068	144.0	5.0	5	1.118033988749895	1.118033988749895
1599589999.283099	1599589999.283099	145.0	4.0	4	1.0	1.0
1599589999.7727714	1599589999.7727714	146.0	5.0	5	1.118033988749895	1.118033988749895
1599590000.2706344	1599590000.2706344	147.0	2.0	2	0.7071067811865476	0.7071067811865476
1599590000.7599442	1599590000.7599442	148.0	2.0	2	0.7071067811865476	0.7071067811865476
1599590001.2454689	1599590001.2454689	149.0	1.0	1	0.5	0.5
1599590001.7729118	1599590001.7729118	150.0	6.0	6	1.224744871391589	1.224744871391589
1599590002.2312565	1599590002.2312565	151.0	5.0	5	1.118033988749895	1.118033988749895
1599590002.721271	1599590002.721271	152.0	6.0	6	1.224744871391589	1.224744871391589
1599590003.2116807	1599590003.2116807	153.0	5.0	5	1.118033988749895	1.118033988749895
1599590003.708705	1599590003.708705	154.0	2.0	2	0.7071067811865476	0.7071067811865476
1599590004.2065399	1599590004.2065399	155.0	2.0	2	0.7071067811865476	0.7071067811865476
1599590004.6839285	1599590004.6839285	156.0	2.0	2	0.7071067811865476	0.7071067811865476
1599590005.1250012	1599590005.1250012	157.0	1.0	1	0.5	0.5
1599590005.5699909	1599590005.5699909	158.0	1.0	1	0.5	0.5
1599590006.017093	1599590006.017093	159.0	2.0	2	0.7071067811865476	0.7071067811865476
1599590006.4559908	1599590006.4559908	160.0	4.0	4	1.0	1.0
1599590006.8977056	1599590006.8977056	161.0	4.0	4	1.0	1.0
1599590007.3442934	1599590007.3442934	162.0	5.0	5	1.118033988749895	1.118033988749895
1599590007.7912266	1599590007.7912266	163.0	3.0	3	0.8660254037844386	0.8660254037844386
1599590008.235278	1599590008.235278	164.0	2.0	2	0.7071067811865476	0.7071067811865476
1599590008.6779513	1599590008.6779513	165.0	5.0	5	1.118033988749895	1.118033988749895
1599590009.1113994	1599590009.1113994	166.0	6.0	6	1.224744871391589	1.224744871391589
1599590009.5575902	1599590009.5575902	167.0	7.0	7	1.3228756555322954	1.3228756555322954
1599590010.0115235	1599590010.0115235	168.0	2.0	2	0.7071067811865476	0.7071067811865476
1599590010.450527	1599590010.450527	169.0	3.0	3	0.8660254037844386	0.8660254037844386
1599590010.892527	1599590010.892527	170.0	4.0	4	1.0	1.0
1599590011.3297	1599590011.3297	171.0	3.0	3	0.8660254037844386	0.8660254037844386
1599590011.7803478	1599590011.7803478	172.0	3.0	3	0.8660254037844386	0.8660254037844386
1599590012.2218328	1599590012.2218328	173.0	1.0	1	0.5	0.5
1599590012.6584275	1599590012.6584275	174.0	4.0	4	1.0	1.0
1599590013.1005158	1599590013.1005158	175.0	5.0	5	1.118033988749895	1.118033988749895
1599590013.5471497	1599590013.5471497	176.0	2.0	2	0.7071067811865476	0.7071067811865476
1599590014.1402268	1599590014.1402268	177.0	5.0	5	1.118033988749895	1.118033988749895
1599590014.3445368	1599590014.3445368	178.0	3.0	3	0.8660254037844386	0.8660254037844386
1599590014.798114	1599590014.798114	179.0	2.0	2	0.7071067811865476	0.7071067811865476
1599590015.143445	1599590015.143445	180.0	3.0	3	0.8660254037844386	0.8660254037844386
1599590015.5425014	1599590015.5425014	181.0	3.0	3	0.8660254037844386	0.8660254037844386
1599590015.9342942	1599590015.9342942	182.0	1.0	1	0.5	0.5
1599590016.3368778	1599590016.3368778	183.0	3.0	3	0.8660254037844386	0.8660254037844386
1599590016.731953	1599590016.731953	184.0	1.0	1	0.5	0.5
1599590017.1277163	1599590017.1277163	185.0	4.0	4	1.0	1.0
1599590017.5328357	1599590017.5328357	186.0	4.0	4	1.0	1.0
1599590017.9292495	1599590017.9292495	187.0	3.0	3	0.8660254037844386	0.8660254037844386
1599590018.3532531	1599590018.3532531	188.0	1.0	1	0.5	0.5
1599590018.7239099	1599590018.7239099	189.0	1.0	1	0.5	0.5
1599590019.1228068	1599590019.1228068	190.0	1.0	1	0.5	0.5
1599590019.5247443	1599590019.5247443	191.0	3.0	3	0.8660254037844386	0.8660254037844386
1599590019.9156055	1599590019.9156055	192.0	1.0	1	0.5	0.5
1599590020.316914	1599590020.316914	193.0	2.0	2	0.7071067811865476	0.7071067811865476
1599590020.7167845	1599590020.7167845	194.0	6.0	6	1.224744871391589	1.224744871391589
1599590021.1200511	1599590021.1200511	195.0	3.0	3	0.8660254037844386	0.8660254037844386
1599590021.508176	1599590021.508176	196.0	1.0	1	0.5	0.5
1599590021.8742208	1599590021.8742208	197.0	2.0	2	0.7071067811865476	0.7071067811865476
1599590022.2342587	1599590022.2342587	198.0	4.0	4	1.0	1.0
1599590022.5847793	1599590022.5847793	199.0	7.0	7	1.3228756555322954	1.3228756555322954
1599590022.948425	1599590022.948425	200.0	2.0	2	0.7071067811865476	0.7071067811865476
1599590023.300562	1599590023.300562	201.0	2.0	2	0.7071067811865476	0.7071067811865476
1599590023.6682534	1599590023.6682534	202.0	0.0	0	0	0.5
1599590024.0252774	1599590024.0252774	203.0	1.0	1	0.5	0.5
1599590024.3817732	1599590024.3817732	204.0	4.0	4	1.0	1.0
1599590024.7432973	1599590024.7432973	205.0	1.0	1	0.5	0.5
1599590025.103797	1599590025.103797	206.0	4.0	4	1.0	1.0
1599590025.4598002	1599590025.4598002	207.0	1.0	1	0.5	0.5
1599590025.821165	1599590025.821165	208.0	2.0	2	0.7071067811865476	0.7071067811865476
1599590026.1741703	1599590026.1741703	209.0	3.0	3	0.8660254037844386	0.8660254037844386
1599590026.5370107	1599590026.5370107	210.0	4.0	4	1.0	1.0
1599590026.8893673	1599590026.8893673	211.0	1.0	1	0.5	0.5
1599590027.2559235	1599590027.2559235	212.0	1.0	1	0.5	0.5
1599590027.613571	1599590027.613571	213.0	3.0	3	0.8660254037844386	0.8660254037844386
1599590027.976321	1599590027.976321	214.0	4.0	4	1.0	1.0
1599590028.3266237	1599590028.3266237	215.0	3.0	3	0.8660254037844386	0.8660254037844386
1599590028.6818185	1599590028.6818185	216.0	1.0	1	0.5	0.5
1599590029.0084498	1599590029.0084498	217.0	4.0	4	1.0	1.0
1599590029.3339574	1599590029.3339574	218.0	1.0	1	0.5	0.5
1599590029.6547287	1599590029.6547287	219.0	1.0	1	0.5	0.5
1599590029.9733799	1599590029.9733799	220.0	0.0	0	0	0.5
1599590030.3036537	1599590030.3036537	221.0	2.0	2	0.7071067811865476	0.7071067811865476
1599590030.6245625	1599590030.6245625	222.0	3.0	3	0.8660254037844386	0.8660254037844386
1599590030.9400623	1599590030.9400623	223.0	1.0	1	0.5	0.5
1599590031.271946	1599590031.271946	224.0	2.0	2	0.7071067811865476	0.7071067811865476
1599590031.5947862	1599590031.5947862	225.0	3.0	3	0.8660254037844386	0.8660254037844386
1599590031.9082673	1599590031.9082673	226.0	2.0	2	0.7071067811865476	0.7071067811865476
1599590032.2404277	1599590032.2404277	227.0	3.0	3	0.8660254037844386	0.8660254037844386
1599590032.5602918	1599590032.5602918	228.0	5.0	5	1.118033988749895	1.118033988749895
1599590032.8882194	1599590032.8882194	229.0	5.0	5	1.118033988749895	1.118033988749895
1599590033.3450131	1599590033.3450131	230.0	2.0	2	0.7071067811865476	0.7071067811865476
1599590033.5259037	1599590033.5259037	231.0	1.0	1	0.5	0.5
1599590033.8505068	1599590033.8505068	232.0	3.0	3	0.8660254037844386	0.8660254037844386
1599590034.174251	1599590034.174251	233.0	4.0	4	1.0	1.0
1599590034.498742	1599590034.498742	234.0	2.0	2	0.7071067811865476	0.7071067811865476
1599590034.822158	1599590034.822158	235.0	3.0	3	0.8660254037844386	0.8660254037844386
1599590035.1482332	1599590035.1482332	236.0	2.0	2	0.7071067811865476	0.7071067811865476
1599590035.5027118	1599590035.5027118	237.0	5.0	5	1.118033988749895	1.118033988749895
1599590035.8543472	1599590035.8543472	238.0	1.0	1	0.5	0.5
1599590036.213648	1599590036.213648	239.0	3.0	3	0.8660254037844386	0.8660254037844386
1599590036.5714965	1599590036.5714965	240.0	4.0	4	1.0	1.0
1599590036.920885	1599590036.920885	241.0	3.0	3	0.8660254037844386	0.8660254037844386
1599590037.2818396	1599590037.2818396	242.0	0.0	0	0	0.5
1599590037.6371236	1599590037.6371236	243.0	3.0	3	0.8660254037844386	0.8660254037844386
1599590038.0084147	1599590038.0084147	244.0	2.0	2	0.7071067811865476	0.7071067811865476
1599590038.3457274	1599590038.3457274	245.0	1.0	1	0.5	0.5
1599590038.7022731	1599590038.7022731	246.0	4.0	4	1.0	1.0
1599590039.0591738	1599590039.0591738	247.0	6.0	6	1.224744871391589	1.224744871391589
1599590039.411743	1599590039.411743	248.0	0.0	0	0	0.5
1599590039.7688284	1599590039.7688284	249.0	4.0	4	1.0	1.0
1599590040.1233509	1599590040.1233509	250.0	4.0	4	1.0	1.0
1599590040.4740896	1599590040.4740896	251.0	2.0	2	0.7071067811865476	0.7071067811865476
1599590040.8331988	1599590040.8331988	252.0	3.0	3	0.8660254037844386	0.8660254037844386
1599590041.1824493	1599590041.1824493	253.0	3.0	3	0.8660254037844386	0.8660254037844386
1599590041.5430577	1599590041.5430577	254.0	2.0	2	0.7071067811865476	0.7071067811865476
1599590041.898523	1599590041.898523	255.0	4.0	4	1.0	1.0
1599590042.2524903	1599590042.2524903	256.0	6.0	6	1.224744871391589	1.224744871391589
1599590042.6428294	1599590042.6428294	257.0	0.0	0	0	0.5
1599590043.039514	1599590043.039514	258.0	2.0	2	0.7071067811865476	0.7071067811865476
1599590043.428865	1599590043.428865	259.0	1.0	1	0.5	0.5
1599590043.8145208	1599590043.8145208	260.0	3.0	3	0.8660254037844386	0.8660254037844386
1599590044.2168856	1599590044.2168856	261.0	6.0	6	1.224744871391589	1.224744871391589
1599590044.598853	1599590044.598853	262.0	1.0	1	0.5	0.5
1599590044.9885771	1599590044.9885771	263.0	2.0	2	0.7071067811865476	0.7071067811865476
1599590045.3791873	1599590045.3791873	264.0	4.0	4	1.0	1.0
1599590045.7687776	1599590045.7687776	265.0	4.0	4	1.0	1.0
1599590046.1670396	1599590046.1670396	266.0	2.0	2	0.7071067811865476	0.7071067811865476
1599590046.5569735	1599590046.5569735	267.0	3.0	3	0.8660254037844386	0.8660254037844386
1599590046.9434268	1599590046.9434268	268.0	5.0	5	1.118033988749895	1.118033988749895
1599590047.3329723	1599590047.3329723	269.0	1.0	1	0.5	0.5
1599590047.726036	1599590047.726036	270.0	2.0	2	0.7071067811865476	0.7071067811865476
1599590048.1230206	1599590048.1230206	271.0	4.0	4	1.0	1.0
1599590048.513428	1599590048.513428	272.0	3.0	3	0.8660254037844386	0.8660254037844386
1599590048.9004874	1599590048.9004874	273.0	3.0	3	0.8660254037844386	0.8660254037844386
1599590049.2855694	1599590049.2855694	274.0	4.0	4	1.0	1.0
1599590049.6803112	1599590049.6803112	275.0	2.0	2	0.7071067811865476	0.7071067811865476
1599590050.080803	1599590050.080803	276.0	2.0	2	0.7071067811865476	0.7071067811865476
1599590050.5073447	1599590050.5073447	277.0	3.0	3	0.8660254037844386	0.8660254037844386
1599590050.9344454	1599590050.9344454	278.0	3.0	3	0.8660254037844386	0.8660254037844386
1599590051.3723106	1599590051.3723106	279.0	1.0	1	0.5	0.5
1599590051.8030374	1599590051.8030374	280.0	8.0	8	1.4142135623730951	1.4142135623730951
1599590052.2260697	1599590052.2260697	281.0	1.0	1	0.5	0.5
1599590052.6562266	1599590052.6562266	282.0	2.0	2	0.7071067811865476	0.7071067811865476
1599590053.090173	1599590053.090173	283.0	3.0	3	0.8660254037844386	0.8660254037844386
1599590053.513835	1599590053.513835	284.0	4.0	4	1.0	1.0
1599590053.943677	1599590053.943677	285.0	5.0	5	1.118033988749895	1.118033988749895
1599590054.3720427	1599590054.3720427	286.0	6.0	6	1.224744871391589	1.224744871391589
1599590054.8093266	1599590054.8093266	287.0	2.0	2	0.7071067811865476	0.7071067811865476
1599590055.2391777	1599590055.2391777	288.0	5.0	5	1.118033988749895	1.118033988749895
1599590055.6627345	1599590055.6627345	289.0	1.0	1	0.5	0.5
1599590056.1036694	1599590056.1036694	290.0	1.0	1	0.5	0.5
1599590056.5238657	1599590056.5238657	291.0	2.0	2	0.7071067811865476	0.7071067811865476
1599590056.9571183	1599590056.9571183	292.0	3.0	3	0.8660254037844386	0.8660254037844386
1599590057.387114	1599590057.387114	293.0	7.0	7	1.3228756555322954	1.3228756555322954
1599590057.8178945	1599590057.8178945	294.0	4.0	4	1.0	1.0
1599590058.2459548	1599590058.2459548	295.0	2.0	2	0.7071067811865476	0.7071067811865476
1599590058.6805575	1599590058.6805575	296.0	1.0	1	0.5	0.5
1599590059.147993	1599590059.147993	297.0	3.0	3	0.8660254037844386	0.8660254037844386
1599590059.6282506	1599590059.6282506	298.0	5.0	5	1.118033988749895	1.118033988749895
1599590060.1051877	1599590060.1051877	299.0	0.0	0	0	0.5
1599590060.5742235	1599590060.5742235	300.0	1.0	1	0.5	0.5
1599590061.0481114	1599590061.0481114	301.0	2.0	2	0.7071067811865476	0.7071067811865476
1599590061.521219	1599590061.521219	302.0	3.0	3	0.8660254037844386	0.8660254037844386
1599590061.9984567	1599590061.9984567	303.0	2.0	2	0.7071067811865476	0.7071067811865476
1599590062.4683018	1599590062.4683018	304.0	1.0	1	0.5	0.5
1599590062.9368193	1599590062.9368193	305.0	4.0	4	1.0	1.0
1599590063.4145176	1599590063.4145176	306.0	1.0	1	0.5	0.5
1599590063.8804286	1599590063.8804286	307.0	2.0	2	0.7071067811865476	0.7071067811865476
1599590064.3543243	1599590064.3543243	308.0	5.0	5	1.118033988749895	1.118033988749895
1599590064.8335738	1599590064.8335738	309.0	4.0	4	1.0	1.0
1599590065.307369	1599590065.307369	310.0	2.0	2	0.7071067811865476	0.7071067811865476
1599590065.779155	1599590065.779155	311.0	2.0	2	0.7071067811865476	0.7071067811865476
1599590066.2409186	1599590066.2409186	312.0	0.0	0	0	0.5
1599590066.7297764	1599590066.7297764	313.0	3.0	3	0.8660254037844386	0.8660254037844386
1599590067.1942205	1599590067.1942205	314.0	5.0	5	1.118033988749895	1.118033988749895
1599590067.660794	1599590067.660794	315.0	4.0	4	1.0	1.0
1599590068.143382	1599590068.143382	316.0	3.0	3	0.8660254037844386	0.8660254037844386
1599590068.6587017	1599590068.6587017	317.0	4.0	4	1.0	1.0
1599590069.1896865	1599590069.1896865	318.0	3.0	3	0.8660254037844386	0.8660254037844386
1599590069.7132368	1599590069.7132368	319.0	5.0	5	1.118033988749895	1.118033988749895
1599590070.2294688	1599590070.2294688	320.0	5.0	5	1.118033988749895	1.118033988749895
1599590070.7539117	1599590070.7539117	321.0	2.0	2	0.7071067811865476	0.7071067811865476
1599590071.270606	1599590071.270606	322.0	4.0	4	1.0	1.0
1599590071.7817957	1599590071.7817957	323.0	4.0	4	1.0	1.0
1599590072.2995195	1599590072.2995195	324.0	2.0	2	0.7071067811865476	0.7071067811865476
1599590072.8265047	1599590072.8265047	325.0	2.0	2	0.7071067811865476	0.7071067811865476
1599590073.348662	1599590073.348662	326.0	2.0	2	0.7071067811865476	0.7071067811865476
1599590073.8662496	1599590073.8662496	327.0	4.0	4	1.0	1.0
1599590074.3883483	1599590074.3883483	328.0	2.0	2	0.7071067811865476	0.7071067811865476
1599590074.9014797	1599590074.9014797	329.0	2.0	2	0.7071067811865476	0.7071067811865476
1599590075.4337285	1599590075.4337285	330.0	1.0	1	0.5	0.5
1599590075.940859	1599590075.940859	331.0	3.0	3	0.8660254037844386	0.8660254037844386
1599590076.4650853	1599590076.4650853	332.0	0.0	0	0	0.5
1599590076.9850643	1599590076.9850643	333.0	4.0	4	1.0	1.0
1599590077.5073943	1599590077.5073943	334.0	1.0	1	0.5	0.5
1599590078.033021	1599590078.033021	335.0	5.0	5	1.118033988749895	1.118033988749895
1599590078.5608714	1599590078.5608714	336.0	4.0	4	1.0	1.0
1599590079.1293156	1599590079.1293156	337.0	1.0	1	0.5	0.5
1599590079.7058358	1599590079.7058358	338.0	2.0	2	0.7071067811865476	0.7071067811865476
1599590080.2635906	1599590080.2635906	339.0	3.0	3	0.8660254037844386	0.8660254037844386
1599590080.846413	1599590080.846413	340.0	4.0	4	1.0	1.0
1599590081.414031	1599590081.414031	341.0	4.0	4	1.0	1.0
1599590081.991107	1599590081.991107	342.0	2.0	2	0.7071067811865476	0.7071067811865476
1599590082.5548205	1599590082.5548205	343.0	3.0	3	0.8660254037844386	0.8660254037844386
1599590083.135719	1599590083.135719	344.0	3.0	3	0.8660254037844386	0.8660254037844386
1599590083.7063158	1599590083.7063158	345.0	3.0	3	0.8660254037844386	0.8660254037844386
1599590084.27157	1599590084.27157	346.0	3.0	3	0.8660254037844386	0.8660254037844386
1599590084.8460324	1599590084.8460324	347.0	3.0	3	0.8660254037844386	0.8660254037844386
1599590085.419957	1599590085.419957	348.0	5.0	5	1.118033988749895	1.118033988749895
1599590085.989763	1599590085.989763	349.0	4.0	4	1.0	1.0
1599590086.8158596	1599590086.8158596	350.0	0.0	0	0	0.5
1599590087.146007	1599590087.146007	351.0	4.0	4	1.0	1.0
1599590087.7159662	1599590087.7159662	352.0	2.0	2	0.7071067811865476	0.7071067811865476
1599590088.2859821	1599590088.2859821	353.0	2.0	2	0.7071067811865476	0.7071067811865476
1599590088.8534663	1599590088.8534663	354.0	0.0	0	0	0.5
1599590089.5099828	1599590089.5099828	355.0	7.0	7	1.3228756555322954	1.3228756555322954
1599590090.0596378	1599590090.0596378	356.0	4.0	4	1.0	1.0
1599590090.6687903	1599590090.6687903	357.0	2.0	2	0.7071067811865476	0.7071067811865476
1599590091.2643566	1599590091.2643566	358.0	5.0	5	1.118033988749895	1.118033988749895
1599590091.8953185	1599590091.8953185	359.0	3.0	3	0.8660254037844386	0.8660254037844386
1599590092.528209	1599590092.528209	360.0	2.0	2	0.7071067811865476	0.7071067811865476
1599590093.1519241	1599590093.1519241	361.0	1.0	1	0.5	0.5
1599590093.7846086	1599590093.7846086	362.0	1.0	1	0.5	0.5
1599590094.4083824	1599590094.4083824	363.0	3.0	3	0.8660254037844386	0.8660254037844386
1599590095.0543306	1599590095.0543306	364.0	3.0	3	0.8660254037844386	0.8660254037844386
1599590095.6676052	1599590095.6676052	365.0	1.0	1	0.5	0.5