# <?xml version="1.0" ?>
# <DataFileHeader>
#   <Variables>
#     <Element name="PulseProgram" type="dict">
#       <Element name="PulseProgram" type="str">C:/Users/ions/Documents/IonControl/project_dir/QuditLab/config/PulseProgramsPlus/Ablation_NeutralFluorescence.ppp</Element>
#       <Element name="NULL" type="Quantity">0</Element>
#       <Element name="FFFFFFFF" type="Quantity">18446744073709551615</Element>
#       <Element name="INTERRUPT_EXITCODE" type="Quantity">18446198715942174720</Element>
#       <Element name="InitializationShutter" type="int">5154</Element>
#       <Element name="NaturalAblation_mask" type="int">256</Element>
#       <Element name="NaturalAblation" type="int">256</Element>
#       <Element name="EndShutter" type="int">5154</Element>
#       <Element name="ShutterDelayTime" type="Quantity">0.5 s</Element>
#       <Element name="WindowStartTime" type="Quantity">145 us</Element>
#       <Element name="DetectTime" type="Quantity">20 us</Element>
#       <Element name="DummyVar" type="int">0</Element>
#       <Element name="experiments" type="int">1</Element>
#       <Element name="DetectCounters" type="int">1</Element>
#       <Element name="endLabel" type="Quantity">18446744073709551615</Element>
#       <Element name="experimentsleft" type="Quantity">100</Element>
#       <Element name="currentexperiment" type="Quantity">0</Element>
#       <Element name="inlinevar_1" type="Quantity">1</Element>
#     </Element>
#     <Element name="Scan" type="dict">
#       <Element name="scanParameter" type="str">DummyVar</Element>
#       <Element name="scanTarget" type="str">Internal</Element>
#       <Element name="scantype" type="int">0</Element>
#       <Element name="scanMode" type="int">0</Element>
#       <Element name="xUnit" type="str"></Element>
#       <Element name="xExpression" type="str"></Element>
#       <Element name="loadPP" type="bool">True</Element>
#       <Element name="loadPPName" type="str">Ablation_NeutralFluorescence_Rad.ppp</Element>
#       <Element name="parallelInternalScanParameter" type="str">None</Element>
#     </Element>
#     <ColumnSpec>timeTickFirst, timeTickLast, x, PMT Count, PMT Count_raw, PMT Count_bottom, PMT Count_top</ColumnSpec>
#     <Element name="comment" type="str"></Element>
#     <Element name="lastDataAquired" type="datetime">2020-09-08 15:25:18.593939+00:00</Element>
#     <Element name="name" type="str"></Element>
#     <Element name="traceCreation" type="datetime">2020-09-08 15:23:41.542123+00:00</Element>
#     <Element name="traceFinalized" type="datetime">2020-09-08 15:25:19.076542+00:00</Element>
#     <TracePlottingList>
#       <TracePlotting _bottomColumn="PMT Count_bottom" _filtColumn="None" _fitFunction="None" _heightColumn="height" _rawColumn="PMT Count_raw" _topColumn="PMT Count_top" _xColumn="x" _yColumn="PMT Count" fill="True" name="PMT Count" properties="&lt;trace.PlottedTrace.PlottedTraceProperties object at 0x000002A984E0F278&gt;" style="0" type="0" windowName="Scan Data" xAxisLabel="DummyVar" xAxisUnit="" yAxisLabel="None">
#         <PlottedTraceProperties averageSameX="False" averageType="0" combinePoints="0"/>
#       </TracePlotting>
#     </TracePlottingList>
#   </Variables>
# </DataFileHeader>
1599578620.484791	1599578620.484791	1.0	5.0	5	1.118033988749895	1.118033988749895
1599578621.5399854	1599578621.5399854	2.0	3.0	3	0.8660254037844386	0.8660254037844386
1599578622.221085	1599578622.221085	3.0	7.0	7	1.3228756555322954	1.3228756555322954
1599578622.5653493	1599578622.5653493	4.0	6.0	6	1.224744871391589	1.224744871391589
1599578622.9723048	1599578622.9723048	5.0	9.0	9	1.5	1.5
1599578623.4199545	1599578623.4199545	6.0	10.0	10	1.5811388300841898	1.5811388300841898
1599578623.8701499	1599578623.8701499	7.0	4.0	4	1.0	1.0
1599578624.328333	1599578624.328333	8.0	8.0	8	1.4142135623730951	1.4142135623730951
1599578624.770703	1599578624.770703	9.0	6.0	6	1.224744871391589	1.224744871391589
1599578625.2224772	1599578625.2224772	10.0	3.0	3	0.8660254037844386	0.8660254037844386
1599578625.8497274	1599578625.8497274	11.0	8.0	8	1.4142135623730951	1.4142135623730951
1599578626.143625	1599578626.143625	12.0	11.0	11	1.6583123951777	1.6583123951777
1599578626.5754085	1599578626.5754085	13.0	8.0	8	1.4142135623730951	1.4142135623730951
1599578627.0265012	1599578627.0265012	14.0	4.0	4	1.0	1.0
1599578627.4700053	1599578627.4700053	15.0	5.0	5	1.118033988749895	1.118033988749895
1599578627.925173	1599578627.925173	16.0	5.0	5	1.118033988749895	1.118033988749895
1599578628.3718748	1599578628.3718748	17.0	10.0	10	1.5811388300841898	1.5811388300841898
1599578628.913103	1599578628.913103	18.0	0.0	0	0	0.5
1599578629.2685773	1599578629.2685773	19.0	4.0	4	1.0	1.0
1599578629.7208552	1599578629.7208552	20.0	8.0	8	1.4142135623730951	1.4142135623730951
1599578630.1706896	1599578630.1706896	21.0	2.0	2	0.7071067811865476	0.7071067811865476
1599578630.6157951	1599578630.6157951	22.0	8.0	8	1.4142135623730951	1.4142135623730951
1599578631.0657878	1599578631.0657878	23.0	4.0	4	1.0	1.0
1599578631.5274162	1599578631.5274162	24.0	4.0	4	1.0	1.0
1599578632.0061898	1599578632.0061898	25.0	7.0	7	1.3228756555322954	1.3228756555322954
1599578632.512235	1599578632.512235	26.0	5.0	5	1.118033988749895	1.118033988749895
1599578632.9894364	1599578632.9894364	27.0	4.0	4	1.0	1.0
1599578633.4909418	1599578633.4909418	28.0	4.0	4	1.0	1.0
1599578633.9835086	1599578633.9835086	29.0	6.0	6	1.224744871391589	1.224744871391589
1599578634.484594	1599578634.484594	30.0	7.0	7	1.3228756555322954	1.3228756555322954
1599578634.977782	1599578634.977782	31.0	2.0	2	0.7071067811865476	0.7071067811865476
1599578635.4862268	1599578635.4862268	32.0	8.0	8	1.4142135623730951	1.4142135623730951
1599578635.962669	1599578635.962669	33.0	13.0	13	1.8027756377319946	1.8027756377319946
1599578636.4670837	1599578636.4670837	34.0	7.0	7	1.3228756555322954	1.3228756555322954
1599578636.9577582	1599578636.9577582	35.0	6.0	6	1.224744871391589	1.224744871391589
1599578637.4495447	1599578637.4495447	36.0	2.0	2	0.7071067811865476	0.7071067811865476
1599578637.946197	1599578637.946197	37.0	4.0	4	1.0	1.0
1599578638.4391947	1599578638.4391947	38.0	6.0	6	1.224744871391589	1.224744871391589
1599578639.0053663	1599578639.0053663	39.0	5.0	5	1.118033988749895	1.118033988749895
1599578639.4340622	1599578639.4340622	40.0	2.0	2	0.7071067811865476	0.7071067811865476
1599578640.1802936	1599578640.1802936	41.0	2.0	2	0.7071067811865476	0.7071067811865476
1599578640.4329402	1599578640.4329402	42.0	8.0	8	1.4142135623730951	1.4142135623730951
1599578640.9108822	1599578640.9108822	43.0	6.0	6	1.224744871391589	1.224744871391589
1599578641.4118984	1599578641.4118984	44.0	6.0	6	1.224744871391589	1.224744871391589
1599578641.940709	1599578641.940709	45.0	2.0	2	0.7071067811865476	0.7071067811865476
1599578642.4875245	1599578642.4875245	46.0	4.0	4	1.0	1.0
1599578643.033078	1599578643.033078	47.0	4.0	4	1.0	1.0
1599578644.123957	1599578644.123957	48.0	6.0	6	1.224744871391589	1.224744871391589
1599578644.4082835	1599578644.4082835	49.0	4.0	4	1.0	1.0
1599578645.0389774	1599578645.0389774	50.0	3.0	3	0.8660254037844386	0.8660254037844386
1599578645.5137632	1599578645.5137632	51.0	5.0	5	1.118033988749895	1.118033988749895
1599578645.7686064	1599578645.7686064	52.0	9.0	9	1.5	1.5
1599578646.3076317	1599578646.3076317	53.0	3.0	3	0.8660254037844386	0.8660254037844386
1599578646.8600771	1599578646.8600771	54.0	2.0	2	0.7071067811865476	0.7071067811865476
1599578647.3842702	1599578647.3842702	55.0	3.0	3	0.8660254037844386	0.8660254037844386
1599578647.938559	1599578647.938559	56.0	4.0	4	1.0	1.0
1599578648.4749823	1599578648.4749823	57.0	6.0	6	1.224744871391589	1.224744871391589
1599578649.0211935	1599578649.0211935	58.0	6.0	6	1.224744871391589	1.224744871391589
1599578649.5756545	1599578649.5756545	59.0	5.0	5	1.118033988749895	1.118033988749895
1599578650.1107223	1599578650.1107223	60.0	3.0	3	0.8660254037844386	0.8660254037844386
1599578650.6545208	1599578650.6545208	61.0	4.0	4	1.0	1.0
1599578651.2016683	1599578651.2016683	62.0	1.0	1	0.5	0.5
1599578651.7416592	1599578651.7416592	63.0	1.0	1	0.5	0.5
1599578652.2964795	1599578652.2964795	64.0	5.0	5	1.118033988749895	1.118033988749895
1599578652.8751147	1599578652.8751147	65.0	7.0	7	1.3228756555322954	1.3228756555322954
1599578653.5731757	1599578653.5731757	66.0	8.0	8	1.4142135623730951	1.4142135623730951
1599578654.0713253	1599578654.0713253	67.0	4.0	4	1.0	1.0
1599578654.687409	1599578654.687409	68.0	3.0	3	0.8660254037844386	0.8660254037844386
1599578655.2723331	1599578655.2723331	69.0	3.0	3	0.8660254037844386	0.8660254037844386
1599578655.8803606	1599578655.8803606	70.0	3.0	3	0.8660254037844386	0.8660254037844386
1599578656.4793549	1599578656.4793549	71.0	4.0	4	1.0	1.0
1599578657.0821247	1599578657.0821247	72.0	2.0	2	0.7071067811865476	0.7071067811865476
1599578657.682177	1599578657.682177	73.0	2.0	2	0.7071067811865476	0.7071067811865476
1599578658.2778423	1599578658.2778423	74.0	0.0	0	0	0.5
1599578658.8790076	1599578658.8790076	75.0	5.0	5	1.118033988749895	1.118033988749895
1599578659.4664383	1599578659.4664383	76.0	2.0	2	0.7071067811865476	0.7071067811865476
1599578660.0634682	1599578660.0634682	77.0	4.0	4	1.0	1.0
1599578660.6732528	1599578660.6732528	78.0	4.0	4	1.0	1.0
1599578661.2713368	1599578661.2713368	79.0	3.0	3	0.8660254037844386	0.8660254037844386
1599578661.873049	1599578661.873049	80.0	7.0	7	1.3228756555322954	1.3228756555322954
1599578662.4689457	1599578662.4689457	81.0	4.0	4	1.0	1.0
1599578663.0713592	1599578663.0713592	82.0	7.0	7	1.3228756555322954	1.3228756555322954
1599578663.6726813	1599578663.6726813	83.0	2.0	2	0.7071067811865476	0.7071067811865476
1599578664.2597947	1599578664.2597947	84.0	4.0	4	1.0	1.0
1599578664.8188324	1599578664.8188324	85.0	6.0	6	1.224744871391589	1.224744871391589
1599578665.3575385	1599578665.3575385	86.0	3.0	3	0.8660254037844386	0.8660254037844386
1599578665.8983974	1599578665.8983974	87.0	7.0	7	1.3228756555322954	1.3228756555322954
1599578666.4309778	1599578666.4309778	88.0	0.0	0	0	0.5
1599578666.9787707	1599578666.9787707	89.0	7.0	7	1.3228756555322954	1.3228756555322954
1599578667.5260708	1599578667.5260708	90.0	6.0	6	1.224744871391589	1.224744871391589
1599578668.0545726	1599578668.0545726	91.0	5.0	5	1.118033988749895	1.118033988749895
1599578668.6008813	1599578668.6008813	92.0	5.0	5	1.118033988749895	1.118033988749895
1599578669.1353507	1599578669.1353507	93.0	4.0	4	1.0	1.0
1599578669.675408	1599578669.675408	94.0	1.0	1	0.5	0.5
1599578670.232905	1599578670.232905	95.0	2.0	2	0.7071067811865476	0.7071067811865476
1599578670.8307223	1599578670.8307223	96.0	3.0	3	0.8660254037844386	0.8660254037844386
1599578671.2898254	1599578671.2898254	97.0	3.0	3	0.8660254037844386	0.8660254037844386
1599578671.8200622	1599578671.8200622	98.0	3.0	3	0.8660254037844386	0.8660254037844386
1599578672.3609886	1599578672.3609886	99.0	5.0	5	1.118033988749895	1.118033988749895
1599578672.909783	1599578672.909783	100.0	5.0	5	1.118033988749895	1.118033988749895
1599578673.443162	1599578673.443162	101.0	5.0	5	1.118033988749895	1.118033988749895
1599578673.9813287	1599578673.9813287	102.0	0.0	0	0	0.5
1599578674.521997	1599578674.521997	103.0	2.0	2	0.7071067811865476	0.7071067811865476
1599578675.0772448	1599578675.0772448	104.0	1.0	1	0.5	0.5
1599578675.5594165	1599578675.5594165	105.0	3.0	3	0.8660254037844386	0.8660254037844386
1599578676.043719	1599578676.043719	106.0	7.0	7	1.3228756555322954	1.3228756555322954
1599578676.5259874	1599578676.5259874	107.0	3.0	3	0.8660254037844386	0.8660254037844386
1599578677.0161874	1599578677.0161874	108.0	7.0	7	1.3228756555322954	1.3228756555322954
1599578677.500886	1599578677.500886	109.0	8.0	8	1.4142135623730951	1.4142135623730951
1599578678.0050726	1599578678.0050726	110.0	9.0	9	1.5	1.5
1599578678.4686642	1599578678.4686642	111.0	4.0	4	1.0	1.0
1599578678.9576204	1599578678.9576204	112.0	8.0	8	1.4142135623730951	1.4142135623730951
1599578679.4435995	1599578679.4435995	113.0	4.0	4	1.0	1.0
1599578679.9247365	1599578679.9247365	114.0	5.0	5	1.118033988749895	1.118033988749895
1599578680.4106693	1599578680.4106693	115.0	8.0	8	1.4142135623730951	1.4142135623730951
1599578680.9106724	1599578680.9106724	116.0	0.0	0	0	0.5
1599578681.379614	1599578681.379614	117.0	5.0	5	1.118033988749895	1.118033988749895
1599578681.8668554	1599578681.8668554	118.0	6.0	6	1.224744871391589	1.224744871391589
1599578682.3532383	1599578682.3532383	119.0	9.0	9	1.5	1.5
1599578682.8512247	1599578682.8512247	120.0	3.0	3	0.8660254037844386	0.8660254037844386
1599578683.3380108	1599578683.3380108	121.0	3.0	3	0.8660254037844386	0.8660254037844386
1599578683.811189	1599578683.811189	122.0	7.0	7	1.3228756555322954	1.3228756555322954
1599578684.2932532	1599578684.2932532	123.0	2.0	2	0.7071067811865476	0.7071067811865476
1599578684.7823026	1599578684.7823026	124.0	6.0	6	1.224744871391589	1.224744871391589
1599578685.2231007	1599578685.2231007	125.0	9.0	9	1.5	1.5
1599578685.6751451	1599578685.6751451	126.0	3.0	3	0.8660254037844386	0.8660254037844386
1599578686.1008348	1599578686.1008348	127.0	5.0	5	1.118033988749895	1.118033988749895
1599578686.535941	1599578686.535941	128.0	1.0	1	0.5	0.5
1599578686.9747787	1599578686.9747787	129.0	6.0	6	1.224744871391589	1.224744871391589
1599578687.4196668	1599578687.4196668	130.0	2.0	2	0.7071067811865476	0.7071067811865476
1599578688.0373795	1599578688.0373795	131.0	6.0	6	1.224744871391589	1.224744871391589
1599578688.2890496	1599578688.2890496	132.0	4.0	4	1.0	1.0
1599578688.7178962	1599578688.7178962	133.0	8.0	8	1.4142135623730951	1.4142135623730951
1599578689.1711278	1599578689.1711278	134.0	5.0	5	1.118033988749895	1.118033988749895
1599578689.6069438	1599578689.6069438	135.0	5.0	5	1.118033988749895	1.118033988749895
1599578690.0421236	1599578690.0421236	136.0	3.0	3	0.8660254037844386	0.8660254037844386
1599578690.4645038	1599578690.4645038	137.0	0.0	0	0	0.5
1599578690.9011319	1599578690.9011319	138.0	4.0	4	1.0	1.0
1599578691.354531	1599578691.354531	139.0	3.0	3	0.8660254037844386	0.8660254037844386
1599578691.7915537	1599578691.7915537	140.0	3.0	3	0.8660254037844386	0.8660254037844386
1599578692.2103336	1599578692.2103336	141.0	8.0	8	1.4142135623730951	1.4142135623730951
1599578692.653091	1599578692.653091	142.0	3.0	3	0.8660254037844386	0.8660254037844386
1599578693.085418	1599578693.085418	143.0	6.0	6	1.224744871391589	1.224744871391589
1599578693.5240974	1599578693.5240974	144.0	3.0	3	0.8660254037844386	0.8660254037844386
1599578693.9243264	1599578693.9243264	145.0	7.0	7	1.3228756555322954	1.3228756555322954
1599578694.3198206	1599578694.3198206	146.0	2.0	2	0.7071067811865476	0.7071067811865476
1599578694.7098243	1599578694.7098243	147.0	2.0	2	0.7071067811865476	0.7071067811865476
1599578695.1166577	1599578695.1166577	148.0	8.0	8	1.4142135623730951	1.4142135623730951
1599578695.4963076	1599578695.4963076	149.0	2.0	2	0.7071067811865476	0.7071067811865476
1599578695.9030895	1599578695.9030895	150.0	4.0	4	1.0	1.0
1599578696.2923312	1599578696.2923312	151.0	8.0	8	1.4142135623730951	1.4142135623730951
1599578696.7002537	1599578696.7002537	152.0	5.0	5	1.118033988749895	1.118033988749895
1599578697.082331	1599578697.082331	153.0	6.0	6	1.224744871391589	1.224744871391589
1599578697.4750462	1599578697.4750462	154.0	6.0	6	1.224744871391589	1.224744871391589
1599578697.8727005	1599578697.8727005	155.0	5.0	5	1.118033988749895	1.118033988749895
1599578698.2488635	1599578698.2488635	156.0	6.0	6	1.224744871391589	1.224744871391589
1599578698.6522913	1599578698.6522913	157.0	8.0	8	1.4142135623730951	1.4142135623730951
1599578699.0506887	1599578699.0506887	158.0	6.0	6	1.224744871391589	1.224744871391589
1599578699.429361	1599578699.429361	159.0	1.0	1	0.5	0.5
1599578699.8356352	1599578699.8356352	160.0	4.0	4	1.0	1.0
1599578700.22895	1599578700.22895	161.0	4.0	4	1.0	1.0
1599578700.6271021	1599578700.6271021	162.0	5.0	5	1.118033988749895	1.118033988749895
1599578701.015053	1599578701.015053	163.0	9.0	9	1.5	1.5
1599578701.4066389	1599578701.4066389	164.0	3.0	3	0.8660254037844386	0.8660254037844386
1599578701.836374	1599578701.836374	165.0	4.0	4	1.0	1.0
1599578702.2662907	1599578702.2662907	166.0	5.0	5	1.118033988749895	1.118033988749895
1599578702.7042747	1599578702.7042747	167.0	4.0	4	1.0	1.0
1599578703.1371424	1599578703.1371424	168.0	5.0	5	1.118033988749895	1.118033988749895
1599578703.5519896	1599578703.5519896	169.0	5.0	5	1.118033988749895	1.118033988749895
1599578703.9934928	1599578703.9934928	170.0	5.0	5	1.118033988749895	1.118033988749895
1599578704.4209044	1599578704.4209044	171.0	5.0	5	1.118033988749895	1.118033988749895
1599578704.8631332	1599578704.8631332	172.0	8.0	8	1.4142135623730951	1.4142135623730951
1599578705.2872138	1599578705.2872138	173.0	4.0	4	1.0	1.0
1599578705.7296884	1599578705.7296884	174.0	4.0	4	1.0	1.0
1599578706.1556976	1599578706.1556976	175.0	9.0	9	1.5	1.5
1599578706.5881917	1599578706.5881917	176.0	2.0	2	0.7071067811865476	0.7071067811865476
1599578707.0243452	1599578707.0243452	177.0	5.0	5	1.118033988749895	1.118033988749895
1599578707.4475887	1599578707.4475887	178.0	5.0	5	1.118033988749895	1.118033988749895
1599578707.8845415	1599578707.8845415	179.0	4.0	4	1.0	1.0
1599578708.3151588	1599578708.3151588	180.0	4.0	4	1.0	1.0
1599578708.7513845	1599578708.7513845	181.0	8.0	8	1.4142135623730951	1.4142135623730951
1599578709.1698	1599578709.1698	182.0	7.0	7	1.3228756555322954	1.3228756555322954
1599578709.6086016	1599578709.6086016	183.0	6.0	6	1.224744871391589	1.224744871391589
1599578710.04506	1599578710.04506	184.0	2.0	2	0.7071067811865476	0.7071067811865476
1599578710.5179713	1599578710.5179713	185.0	4.0	4	1.0	1.0
1599578710.981943	1599578710.981943	186.0	3.0	3	0.8660254037844386	0.8660254037844386
1599578711.4633007	1599578711.4633007	187.0	4.0	4	1.0	1.0
1599578711.9343867	1599578711.9343867	188.0	5.0	5	1.118033988749895	1.118033988749895
1599578712.410435	1599578712.410435	189.0	6.0	6	1.224744871391589	1.224744871391589
1599578712.882549	1599578712.882549	190.0	5.0	5	1.118033988749895	1.118033988749895
1599578713.3595994	1599578713.3595994	191.0	7.0	7	1.3228756555322954	1.3228756555322954
1599578713.8398294	1599578713.8398294	192.0	11.0	11	1.6583123951777	1.6583123951777
1599578714.3183794	1599578714.3183794	193.0	2.0	2	0.7071067811865476	0.7071067811865476
1599578714.79176	1599578714.79176	194.0	4.0	4	1.0	1.0
1599578715.2652183	1599578715.2652183	195.0	2.0	2	0.7071067811865476	0.7071067811865476
1599578715.7502825	1599578715.7502825	196.0	2.0	2	0.7071067811865476	0.7071067811865476
1599578716.3004353	1599578716.3004353	197.0	2.0	2	0.7071067811865476	0.7071067811865476
1599578716.6979198	1599578716.6979198	198.0	4.0	4	1.0	1.0
1599578717.178206	1599578717.178206	199.0	3.0	3	0.8660254037844386	0.8660254037844386
1599578717.6510277	1599578717.6510277	200.0	3.0	3	0.8660254037844386	0.8660254037844386
1599578718.1245823	1599578718.1245823	201.0	6.0	6	1.224744871391589	1.224744871391589