# <?xml version="1.0" ?>
# <DataFileHeader>
#   <Variables>
#     <Element name="PulseProgram" type="dict">
#       <Element name="PulseProgram" type="str">C:/Users/ions/Documents/IonControl/project_dir/QuditLab/config/PulseProgramsPlus/Ablation_NeutralFluorescence.ppp</Element>
#       <Element name="NULL" type="Quantity">0</Element>
#       <Element name="FFFFFFFF" type="Quantity">18446744073709551615</Element>
#       <Element name="INTERRUPT_EXITCODE" type="Quantity">18446198715942174720</Element>
#       <Element name="InitializationShutter" type="int">5154</Element>
#       <Element name="NaturalAblation_mask" type="int">256</Element>
#       <Element name="NaturalAblation" type="int">256</Element>
#       <Element name="EndShutter" type="int">5154</Element>
#       <Element name="ShutterDelayTime" type="Quantity">0.5 s</Element>
#       <Element name="WindowStartTime" type="Quantity">145 us</Element>
#       <Element name="DetectTime" type="Quantity">20 us</Element>
#       <Element name="DummyVar" type="int">0</Element>
#       <Element name="experiments" type="int">1</Element>
#       <Element name="DetectCounters" type="int">1</Element>
#       <Element name="endLabel" type="Quantity">18446744073709551615</Element>
#       <Element name="experimentsleft" type="Quantity">100</Element>
#       <Element name="currentexperiment" type="Quantity">0</Element>
#       <Element name="inlinevar_1" type="Quantity">1</Element>
#     </Element>
#     <Element name="Scan" type="dict">
#       <Element name="scanParameter" type="str">DummyVar</Element>
#       <Element name="scanTarget" type="str">Internal</Element>
#       <Element name="scantype" type="int">0</Element>
#       <Element name="scanMode" type="int">0</Element>
#       <Element name="xUnit" type="str"></Element>
#       <Element name="xExpression" type="str"></Element>
#       <Element name="loadPP" type="bool">True</Element>
#       <Element name="loadPPName" type="str">Ablation_NeutralFluorescence_Rad.ppp</Element>
#       <Element name="parallelInternalScanParameter" type="str">None</Element>
#     </Element>
#     <ColumnSpec>timeTickFirst, timeTickLast, x, PMT Count, PMT Count_raw, PMT Count_bottom, PMT Count_top</ColumnSpec>
#     <Element name="comment" type="str"></Element>
#     <Element name="lastDataAquired" type="datetime">2020-09-08 19:03:34.986379+00:00</Element>
#     <Element name="name" type="str"></Element>
#     <Element name="traceCreation" type="datetime">2020-09-08 18:58:43.171562+00:00</Element>
#     <Element name="traceFinalized" type="datetime">2020-09-08 19:03:34.989532+00:00</Element>
#     <TracePlottingList>
#       <TracePlotting _bottomColumn="PMT Count_bottom" _filtColumn="None" _fitFunction="None" _heightColumn="height" _rawColumn="PMT Count_raw" _topColumn="PMT Count_top" _xColumn="x" _yColumn="PMT Count" fill="True" name="PMT Count" properties="&lt;trace.PlottedTrace.PlottedTraceProperties object at 0x000002A9850072E8&gt;" style="0" type="0" windowName="Scan Data" xAxisLabel="DummyVar" xAxisUnit="" yAxisLabel="None">
#         <PlottedTraceProperties averageSameX="False" averageType="0" combinePoints="0"/>
#       </TracePlotting>
#     </TracePlottingList>
#   </Variables>
# </DataFileHeader>
1599591521.8850114	1599591521.8850114	1.0	4.0	4	1.0	1.0
1599591523.169235	1599591523.169235	2.0	2.0	2	0.7071067811865476	0.7071067811865476
1599591523.5807722	1599591523.5807722	3.0	2.0	2	0.7071067811865476	0.7071067811865476
1599591523.7510595	1599591523.7510595	4.0	2.0	2	0.7071067811865476	0.7071067811865476
1599591524.2724721	1599591524.2724721	5.0	1.0	1	0.5	0.5
1599591524.6797988	1599591524.6797988	6.0	1.0	1	0.5	0.5
1599591525.1562169	1599591525.1562169	7.0	1.0	1	0.5	0.5
1599591525.594077	1599591525.594077	8.0	1.0	1	0.5	0.5
1599591526.068575	1599591526.068575	9.0	1.0	1	0.5	0.5
1599591526.5135193	1599591526.5135193	10.0	1.0	1	0.5	0.5
1599591526.976997	1599591526.976997	11.0	1.0	1	0.5	0.5
1599591527.4405334	1599591527.4405334	12.0	9.0	9	1.5	1.5
1599591527.9171014	1599591527.9171014	13.0	3.0	3	0.8660254037844386	0.8660254037844386
1599591528.3645084	1599591528.3645084	14.0	2.0	2	0.7071067811865476	0.7071067811865476
1599591528.807978	1599591528.807978	15.0	5.0	5	1.118033988749895	1.118033988749895
1599591529.2454786	1599591529.2454786	16.0	6.0	6	1.224744871391589	1.224744871391589
1599591529.6502664	1599591529.6502664	17.0	4.0	4	1.0	1.0
1599591530.062231	1599591530.062231	18.0	4.0	4	1.0	1.0
1599591530.4663987	1599591530.4663987	19.0	6.0	6	1.224744871391589	1.224744871391589
1599591530.885382	1599591530.885382	20.0	1.0	1	0.5	0.5
1599591531.3192894	1599591531.3192894	21.0	4.0	4	1.0	1.0
1599591531.7188456	1599591531.7188456	22.0	4.0	4	1.0	1.0
1599591532.1295981	1599591532.1295981	23.0	5.0	5	1.118033988749895	1.118033988749895
1599591532.542513	1599591532.542513	24.0	1.0	1	0.5	0.5
1599591532.9728017	1599591532.9728017	25.0	2.0	2	0.7071067811865476	0.7071067811865476
1599591533.392106	1599591533.392106	26.0	2.0	2	0.7071067811865476	0.7071067811865476
1599591533.7905622	1599591533.7905622	27.0	3.0	3	0.8660254037844386	0.8660254037844386
1599591534.2124257	1599591534.2124257	28.0	4.0	4	1.0	1.0
1599591534.6420567	1599591534.6420567	29.0	1.0	1	0.5	0.5
1599591535.0638769	1599591535.0638769	30.0	1.0	1	0.5	0.5
1599591535.464243	1599591535.464243	31.0	4.0	4	1.0	1.0
1599591535.866891	1599591535.866891	32.0	2.0	2	0.7071067811865476	0.7071067811865476
1599591536.2947898	1599591536.2947898	33.0	2.0	2	0.7071067811865476	0.7071067811865476
1599591536.6984031	1599591536.6984031	34.0	4.0	4	1.0	1.0
1599591537.1085284	1599591537.1085284	35.0	8.0	8	1.4142135623730951	1.4142135623730951
1599591537.479637	1599591537.479637	36.0	5.0	5	1.118033988749895	1.118033988749895
1599591537.8575406	1599591537.8575406	37.0	3.0	3	0.8660254037844386	0.8660254037844386
1599591538.2252636	1599591538.2252636	38.0	1.0	1	0.5	0.5
1599591538.6043968	1599591538.6043968	39.0	6.0	6	1.224744871391589	1.224744871391589
1599591538.9834514	1599591538.9834514	40.0	4.0	4	1.0	1.0
1599591539.3619277	1599591539.3619277	41.0	0.0	0	0	0.5
1599591539.7833924	1599591539.7833924	42.0	2.0	2	0.7071067811865476	0.7071067811865476
1599591540.1066368	1599591540.1066368	43.0	4.0	4	1.0	1.0
1599591540.468818	1599591540.468818	44.0	1.0	1	0.5	0.5
1599591540.8466327	1599591540.8466327	45.0	2.0	2	0.7071067811865476	0.7071067811865476
1599591541.2318797	1599591541.2318797	46.0	1.0	1	0.5	0.5
1599591541.5840018	1599591541.5840018	47.0	1.0	1	0.5	0.5
1599591541.967211	1599591541.967211	48.0	2.0	2	0.7071067811865476	0.7071067811865476
1599591542.3483503	1599591542.3483503	49.0	3.0	3	0.8660254037844386	0.8660254037844386
1599591542.7145486	1599591542.7145486	50.0	3.0	3	0.8660254037844386	0.8660254037844386
1599591543.089967	1599591543.089967	51.0	1.0	1	0.5	0.5
1599591543.4695063	1599591543.4695063	52.0	2.0	2	0.7071067811865476	0.7071067811865476
1599591543.8389137	1599591543.8389137	53.0	3.0	3	0.8660254037844386	0.8660254037844386
1599591544.2019722	1599591544.2019722	54.0	7.0	7	1.3228756555322954	1.3228756555322954
1599591544.6146564	1599591544.6146564	55.0	3.0	3	0.8660254037844386	0.8660254037844386
1599591545.018616	1599591545.018616	56.0	2.0	2	0.7071067811865476	0.7071067811865476
1599591545.4293144	1599591545.4293144	57.0	3.0	3	0.8660254037844386	0.8660254037844386
1599591545.8310573	1599591545.8310573	58.0	5.0	5	1.118033988749895	1.118033988749895
1599591546.243118	1599591546.243118	59.0	1.0	1	0.5	0.5
1599591546.6434014	1599591546.6434014	60.0	2.0	2	0.7071067811865476	0.7071067811865476
1599591547.0764682	1599591547.0764682	61.0	2.0	2	0.7071067811865476	0.7071067811865476
1599591547.4869804	1599591547.4869804	62.0	2.0	2	0.7071067811865476	0.7071067811865476
1599591547.904178	1599591547.904178	63.0	2.0	2	0.7071067811865476	0.7071067811865476
1599591548.3223424	1599591548.3223424	64.0	1.0	1	0.5	0.5
1599591548.7179992	1599591548.7179992	65.0	1.0	1	0.5	0.5
1599591549.1266477	1599591549.1266477	66.0	1.0	1	0.5	0.5
1599591549.5480888	1599591549.5480888	67.0	1.0	1	0.5	0.5
1599591549.9341285	1599591549.9341285	68.0	5.0	5	1.118033988749895	1.118033988749895
1599591550.370571	1599591550.370571	69.0	1.0	1	0.5	0.5
1599591550.776994	1599591550.776994	70.0	1.0	1	0.5	0.5
1599591551.1832814	1599591551.1832814	71.0	3.0	3	0.8660254037844386	0.8660254037844386
1599591551.595053	1599591551.595053	72.0	3.0	3	0.8660254037844386	0.8660254037844386
1599591552.0057967	1599591552.0057967	73.0	7.0	7	1.3228756555322954	1.3228756555322954
1599591552.440164	1599591552.440164	74.0	5.0	5	1.118033988749895	1.118033988749895
1599591552.85232	1599591552.85232	75.0	6.0	6	1.224744871391589	1.224744871391589
1599591553.2946463	1599591553.2946463	76.0	4.0	4	1.0	1.0
1599591553.7490125	1599591553.7490125	77.0	2.0	2	0.7071067811865476	0.7071067811865476
1599591554.2037556	1599591554.2037556	78.0	6.0	6	1.224744871391589	1.224744871391589
1599591554.6458502	1599591554.6458502	79.0	2.0	2	0.7071067811865476	0.7071067811865476
1599591555.1075559	1599591555.1075559	80.0	5.0	5	1.118033988749895	1.118033988749895
1599591555.5571773	1599591555.5571773	81.0	5.0	5	1.118033988749895	1.118033988749895
1599591556.0078547	1599591556.0078547	82.0	4.0	4	1.0	1.0
1599591556.4739983	1599591556.4739983	83.0	4.0	4	1.0	1.0
1599591556.9042537	1599591556.9042537	84.0	5.0	5	1.118033988749895	1.118033988749895
1599591557.3739772	1599591557.3739772	85.0	5.0	5	1.118033988749895	1.118033988749895
1599591557.8152692	1599591557.8152692	86.0	6.0	6	1.224744871391589	1.224744871391589
1599591558.2826676	1599591558.2826676	87.0	4.0	4	1.0	1.0
1599591558.7242918	1599591558.7242918	88.0	7.0	7	1.3228756555322954	1.3228756555322954
1599591559.2166057	1599591559.2166057	89.0	6.0	6	1.224744871391589	1.224744871391589
1599591559.6247182	1599591559.6247182	90.0	4.0	4	1.0	1.0
1599591560.0804932	1599591560.0804932	91.0	4.0	4	1.0	1.0
1599591560.5329845	1599591560.5329845	92.0	3.0	3	0.8660254037844386	0.8660254037844386
1599591560.9831674	1599591560.9831674	93.0	3.0	3	0.8660254037844386	0.8660254037844386
1599591561.4356985	1599591561.4356985	94.0	5.0	5	1.118033988749895	1.118033988749895
1599591561.9168236	1599591561.9168236	95.0	6.0	6	1.224744871391589	1.224744871391589
1599591562.4053128	1599591562.4053128	96.0	5.0	5	1.118033988749895	1.118033988749895
1599591562.9106221	1599591562.9106221	97.0	4.0	4	1.0	1.0
1599591563.4015396	1599591563.4015396	98.0	3.0	3	0.8660254037844386	0.8660254037844386
1599591563.908581	1599591563.908581	99.0	6.0	6	1.224744871391589	1.224744871391589
1599591564.392908	1599591564.392908	100.0	6.0	6	1.224744871391589	1.224744871391589
1599591564.8974245	1599591564.8974245	101.0	4.0	4	1.0	1.0
1599591565.3897355	1599591565.3897355	102.0	4.0	4	1.0	1.0
1599591565.8866825	1599591565.8866825	103.0	5.0	5	1.118033988749895	1.118033988749895
1599591566.377692	1599591566.377692	104.0	9.0	9	1.5	1.5
1599591566.879617	1599591566.879617	105.0	4.0	4	1.0	1.0
1599591567.3776274	1599591567.3776274	106.0	6.0	6	1.224744871391589	1.224744871391589
1599591567.8742068	1599591567.8742068	107.0	7.0	7	1.3228756555322954	1.3228756555322954
1599591568.3583827	1599591568.3583827	108.0	1.0	1	0.5	0.5
1599591568.8846335	1599591568.8846335	109.0	2.0	2	0.7071067811865476	0.7071067811865476
1599591569.365621	1599591569.365621	110.0	3.0	3	0.8660254037844386	0.8660254037844386
1599591569.8637474	1599591569.8637474	111.0	4.0	4	1.0	1.0
1599591570.367249	1599591570.367249	112.0	5.0	5	1.118033988749895	1.118033988749895
1599591570.8573284	1599591570.8573284	113.0	4.0	4	1.0	1.0
1599591571.3528297	1599591571.3528297	114.0	5.0	5	1.118033988749895	1.118033988749895
1599591571.8721502	1599591571.8721502	115.0	2.0	2	0.7071067811865476	0.7071067811865476
1599591572.4248593	1599591572.4248593	116.0	3.0	3	0.8660254037844386	0.8660254037844386
1599591572.9803617	1599591572.9803617	117.0	0.0	0	0	0.5
1599591573.5219038	1599591573.5219038	118.0	3.0	3	0.8660254037844386	0.8660254037844386
1599591574.0661218	1599591574.0661218	119.0	4.0	4	1.0	1.0
1599591574.615849	1599591574.615849	120.0	2.0	2	0.7071067811865476	0.7071067811865476
1599591575.171418	1599591575.171418	121.0	3.0	3	0.8660254037844386	0.8660254037844386
1599591575.703024	1599591575.703024	122.0	4.0	4	1.0	1.0
1599591576.2536488	1599591576.2536488	123.0	2.0	2	0.7071067811865476	0.7071067811865476
1599591576.7975373	1599591576.7975373	124.0	1.0	1	0.5	0.5
1599591577.357871	1599591577.357871	125.0	1.0	1	0.5	0.5
1599591578.1658702	1599591578.1658702	126.0	1.0	1	0.5	0.5
1599591578.4381843	1599591578.4381843	127.0	5.0	5	1.118033988749895	1.118033988749895
1599591579.037936	1599591579.037936	128.0	6.0	6	1.224744871391589	1.224744871391589
1599591579.5448444	1599591579.5448444	129.0	4.0	4	1.0	1.0
1599591580.0811522	1599591580.0811522	130.0	4.0	4	1.0	1.0
1599591580.6366131	1599591580.6366131	131.0	6.0	6	1.224744871391589	1.224744871391589
1599591581.1729605	1599591581.1729605	132.0	1.0	1	0.5	0.5
1599591581.7371612	1599591581.7371612	133.0	1.0	1	0.5	0.5
1599591582.280571	1599591582.280571	134.0	3.0	3	0.8660254037844386	0.8660254037844386
1599591582.8349776	1599591582.8349776	135.0	1.0	1	0.5	0.5
1599591583.433986	1599591583.433986	136.0	6.0	6	1.224744871391589	1.224744871391589
1599591584.056973	1599591584.056973	137.0	3.0	3	0.8660254037844386	0.8660254037844386
1599591584.6398437	1599591584.6398437	138.0	1.0	1	0.5	0.5
1599591585.241626	1599591585.241626	139.0	3.0	3	0.8660254037844386	0.8660254037844386
1599591585.8508303	1599591585.8508303	140.0	4.0	4	1.0	1.0
1599591586.4604008	1599591586.4604008	141.0	3.0	3	0.8660254037844386	0.8660254037844386
1599591587.0463555	1599591587.0463555	142.0	0.0	0	0	0.5
1599591587.6750586	1599591587.6750586	143.0	5.0	5	1.118033988749895	1.118033988749895
1599591588.2524247	1599591588.2524247	144.0	3.0	3	0.8660254037844386	0.8660254037844386
1599591588.87009	1599591588.87009	145.0	3.0	3	0.8660254037844386	0.8660254037844386
1599591589.4609652	1599591589.4609652	146.0	4.0	4	1.0	1.0
1599591590.0572512	1599591590.0572512	147.0	2.0	2	0.7071067811865476	0.7071067811865476
1599591590.6636012	1599591590.6636012	148.0	2.0	2	0.7071067811865476	0.7071067811865476
1599591591.2615037	1599591591.2615037	149.0	1.0	1	0.5	0.5
1599591591.87296	1599591591.87296	150.0	4.0	4	1.0	1.0
1599591592.4651537	1599591592.4651537	151.0	0.0	0	0	0.5
1599591593.0726452	1599591593.0726452	152.0	1.0	1	0.5	0.5
1599591593.668586	1599591593.668586	153.0	5.0	5	1.118033988749895	1.118033988749895
1599591594.2712128	1599591594.2712128	154.0	3.0	3	0.8660254037844386	0.8660254037844386
1599591594.8948865	1599591594.8948865	155.0	3.0	3	0.8660254037844386	0.8660254037844386
1599591595.5611885	1599591595.5611885	156.0	0.0	0	0	0.5
1599591596.2341027	1599591596.2341027	157.0	2.0	2	0.7071067811865476	0.7071067811865476
1599591596.8846688	1599591596.8846688	158.0	3.0	3	0.8660254037844386	0.8660254037844386
1599591597.5619187	1599591597.5619187	159.0	5.0	5	1.118033988749895	1.118033988749895
1599591598.205305	1599591598.205305	160.0	3.0	3	0.8660254037844386	0.8660254037844386
1599591598.8677201	1599591598.8677201	161.0	0.0	0	0	0.5
1599591599.5308006	1599591599.5308006	162.0	1.0	1	0.5	0.5
1599591600.1950028	1599591600.1950028	163.0	2.0	2	0.7071067811865476	0.7071067811865476
1599591600.8519778	1599591600.8519778	164.0	1.0	1	0.5	0.5
1599591601.516749	1599591601.516749	165.0	3.0	3	0.8660254037844386	0.8660254037844386
1599591602.1892557	1599591602.1892557	166.0	4.0	4	1.0	1.0
1599591602.8558593	1599591602.8558593	167.0	2.0	2	0.7071067811865476	0.7071067811865476
1599591603.508949	1599591603.508949	168.0	1.0	1	0.5	0.5
1599591604.177059	1599591604.177059	169.0	2.0	2	0.7071067811865476	0.7071067811865476
1599591604.8388243	1599591604.8388243	170.0	3.0	3	0.8660254037844386	0.8660254037844386
1599591605.4885356	1599591605.4885356	171.0	2.0	2	0.7071067811865476	0.7071067811865476
1599591606.1613984	1599591606.1613984	172.0	0.0	0	0	0.5
1599591606.8182497	1599591606.8182497	173.0	3.0	3	0.8660254037844386	0.8660254037844386
1599591607.4834802	1599591607.4834802	174.0	1.0	1	0.5	0.5
1599591608.205333	1599591608.205333	175.0	2.0	2	0.7071067811865476	0.7071067811865476
1599591608.7138674	1599591608.7138674	176.0	3.0	3	0.8660254037844386	0.8660254037844386
1599591609.3041005	1599591609.3041005	177.0	2.0	2	0.7071067811865476	0.7071067811865476
1599591609.9112072	1599591609.9112072	178.0	2.0	2	0.7071067811865476	0.7071067811865476
1599591610.5075912	1599591610.5075912	179.0	8.0	8	1.4142135623730951	1.4142135623730951
1599591611.097318	1599591611.097318	180.0	1.0	1	0.5	0.5
1599591611.6871984	1599591611.6871984	181.0	7.0	7	1.3228756555322954	1.3228756555322954
1599591612.283606	1599591612.283606	182.0	3.0	3	0.8660254037844386	0.8660254037844386
1599591612.8774714	1599591612.8774714	183.0	2.0	2	0.7071067811865476	0.7071067811865476
1599591613.4813564	1599591613.4813564	184.0	3.0	3	0.8660254037844386	0.8660254037844386
1599591614.0712209	1599591614.0712209	185.0	2.0	2	0.7071067811865476	0.7071067811865476
1599591614.6770887	1599591614.6770887	186.0	1.0	1	0.5	0.5
1599591615.264345	1599591615.264345	187.0	2.0	2	0.7071067811865476	0.7071067811865476
1599591615.8775723	1599591615.8775723	188.0	1.0	1	0.5	0.5
1599591616.465145	1599591616.465145	189.0	3.0	3	0.8660254037844386	0.8660254037844386
1599591617.056602	1599591617.056602	190.0	1.0	1	0.5	0.5
1599591617.6464348	1599591617.6464348	191.0	6.0	6	1.224744871391589	1.224744871391589
1599591618.2460396	1599591618.2460396	192.0	6.0	6	1.224744871391589	1.224744871391589
1599591618.8484302	1599591618.8484302	193.0	5.0	5	1.118033988749895	1.118033988749895
1599591619.435653	1599591619.435653	194.0	5.0	5	1.118033988749895	1.118033988749895
1599591620.0183465	1599591620.0183465	195.0	3.0	3	0.8660254037844386	0.8660254037844386
1599591620.5497735	1599591620.5497735	196.0	3.0	3	0.8660254037844386	0.8660254037844386
1599591621.089969	1599591621.089969	197.0	1.0	1	0.5	0.5
1599591621.625517	1599591621.625517	198.0	2.0	2	0.7071067811865476	0.7071067811865476
1599591622.1662858	1599591622.1662858	199.0	6.0	6	1.224744871391589	1.224744871391589
1599591622.700343	1599591622.700343	200.0	9.0	9	1.5	1.5
1599591623.2356942	1599591623.2356942	201.0	0.0	0	0	0.5
1599591623.7716613	1599591623.7716613	202.0	4.0	4	1.0	1.0
1599591624.3097253	1599591624.3097253	203.0	5.0	5	1.118033988749895	1.118033988749895
1599591624.841879	1599591624.841879	204.0	6.0	6	1.224744871391589	1.224744871391589
1599591625.3836906	1599591625.3836906	205.0	2.0	2	0.7071067811865476	0.7071067811865476
1599591625.9106765	1599591625.9106765	206.0	1.0	1	0.5	0.5
1599591626.4569366	1599591626.4569366	207.0	1.0	1	0.5	0.5
1599591626.995407	1599591626.995407	208.0	3.0	3	0.8660254037844386	0.8660254037844386
1599591627.5285501	1599591627.5285501	209.0	3.0	3	0.8660254037844386	0.8660254037844386
1599591628.0645888	1599591628.0645888	210.0	4.0	4	1.0	1.0
1599591628.6007094	1599591628.6007094	211.0	3.0	3	0.8660254037844386	0.8660254037844386
1599591629.1364806	1599591629.1364806	212.0	6.0	6	1.224744871391589	1.224744871391589
1599591629.6724691	1599591629.6724691	213.0	4.0	4	1.0	1.0
1599591630.1998858	1599591630.1998858	214.0	2.0	2	0.7071067811865476	0.7071067811865476
1599591630.7283916	1599591630.7283916	215.0	2.0	2	0.7071067811865476	0.7071067811865476
1599591631.2025986	1599591631.2025986	216.0	5.0	5	1.118033988749895	1.118033988749895
1599591631.6874526	1599591631.6874526	217.0	4.0	4	1.0	1.0
1599591632.164555	1599591632.164555	218.0	7.0	7	1.3228756555322954	1.3228756555322954
1599591632.658849	1599591632.658849	219.0	3.0	3	0.8660254037844386	0.8660254037844386
1599591633.1516411	1599591633.1516411	220.0	7.0	7	1.3228756555322954	1.3228756555322954
1599591633.6243045	1599591633.6243045	221.0	5.0	5	1.118033988749895	1.118033988749895
1599591634.1038532	1599591634.1038532	222.0	5.0	5	1.118033988749895	1.118033988749895
1599591634.5907996	1599591634.5907996	223.0	6.0	6	1.224744871391589	1.224744871391589
1599591635.0742042	1599591635.0742042	224.0	4.0	4	1.0	1.0
1599591635.5542958	1599591635.5542958	225.0	4.0	4	1.0	1.0
1599591636.0417645	1599591636.0417645	226.0	5.0	5	1.118033988749895	1.118033988749895
1599591636.515986	1599591636.515986	227.0	5.0	5	1.118033988749895	1.118033988749895
1599591637.0059288	1599591637.0059288	228.0	3.0	3	0.8660254037844386	0.8660254037844386
1599591637.4843802	1599591637.4843802	229.0	3.0	3	0.8660254037844386	0.8660254037844386
1599591637.9631097	1599591637.9631097	230.0	2.0	2	0.7071067811865476	0.7071067811865476
1599591638.4465885	1599591638.4465885	231.0	4.0	4	1.0	1.0
1599591638.9299295	1599591638.9299295	232.0	4.0	4	1.0	1.0
1599591639.4112356	1599591639.4112356	233.0	6.0	6	1.224744871391589	1.224744871391589
1599591639.8986745	1599591639.8986745	234.0	3.0	3	0.8660254037844386	0.8660254037844386
1599591640.3579602	1599591640.3579602	235.0	5.0	5	1.118033988749895	1.118033988749895
1599591640.7949255	1599591640.7949255	236.0	5.0	5	1.118033988749895	1.118033988749895
1599591641.2268927	1599591641.2268927	237.0	3.0	3	0.8660254037844386	0.8660254037844386
1599591641.662551	1599591641.662551	238.0	1.0	1	0.5	0.5
1599591642.0917559	1599591642.0917559	239.0	3.0	3	0.8660254037844386	0.8660254037844386
1599591642.5333562	1599591642.5333562	240.0	2.0	2	0.7071067811865476	0.7071067811865476
1599591642.962397	1599591642.962397	241.0	4.0	4	1.0	1.0
1599591643.402698	1599591643.402698	242.0	2.0	2	0.7071067811865476	0.7071067811865476
1599591643.830216	1599591643.830216	243.0	2.0	2	0.7071067811865476	0.7071067811865476
1599591644.264994	1599591644.264994	244.0	3.0	3	0.8660254037844386	0.8660254037844386
1599591644.70395	1599591644.70395	245.0	4.0	4	1.0	1.0
1599591645.1464555	1599591645.1464555	246.0	5.0	5	1.118033988749895	1.118033988749895
1599591645.571375	1599591645.571375	247.0	3.0	3	0.8660254037844386	0.8660254037844386
1599591646.0048697	1599591646.0048697	248.0	4.0	4	1.0	1.0
1599591646.8314273	1599591646.8314273	249.0	5.0	5	1.118033988749895	1.118033988749895
1599591646.901579	1599591646.901579	250.0	1.0	1	0.5	0.5
1599591647.3074934	1599591647.3074934	251.0	3.0	3	0.8660254037844386	0.8660254037844386
1599591647.7460127	1599591647.7460127	252.0	2.0	2	0.7071067811865476	0.7071067811865476
1599591648.1755466	1599591648.1755466	253.0	3.0	3	0.8660254037844386	0.8660254037844386
1599591648.612948	1599591648.612948	254.0	3.0	3	0.8660254037844386	0.8660254037844386
1599591649.0293114	1599591649.0293114	255.0	2.0	2	0.7071067811865476	0.7071067811865476
1599591649.4192646	1599591649.4192646	256.0	3.0	3	0.8660254037844386	0.8660254037844386
1599591649.8102767	1599591649.8102767	257.0	1.0	1	0.5	0.5
1599591650.2029605	1599591650.2029605	258.0	3.0	3	0.8660254037844386	0.8660254037844386
1599591650.5954335	1599591650.5954335	259.0	3.0	3	0.8660254037844386	0.8660254037844386
1599591650.985246	1599591650.985246	260.0	5.0	5	1.118033988749895	1.118033988749895
1599591651.373028	1599591651.373028	261.0	8.0	8	1.4142135623730951	1.4142135623730951
1599591651.7685847	1599591651.7685847	262.0	4.0	4	1.0	1.0
1599591652.1560009	1599591652.1560009	263.0	2.0	2	0.7071067811865476	0.7071067811865476
1599591652.5465076	1599591652.5465076	264.0	6.0	6	1.224744871391589	1.224744871391589
1599591652.939427	1599591652.939427	265.0	4.0	4	1.0	1.0
1599591653.3337023	1599591653.3337023	266.0	6.0	6	1.224744871391589	1.224744871391589
1599591653.7209737	1599591653.7209737	267.0	2.0	2	0.7071067811865476	0.7071067811865476
1599591654.1152046	1599591654.1152046	268.0	4.0	4	1.0	1.0
1599591654.5113125	1599591654.5113125	269.0	2.0	2	0.7071067811865476	0.7071067811865476
1599591654.8951159	1599591654.8951159	270.0	11.0	11	1.6583123951777	1.6583123951777
1599591655.2815995	1599591655.2815995	271.0	3.0	3	0.8660254037844386	0.8660254037844386
1599591655.6752832	1599591655.6752832	272.0	1.0	1	0.5	0.5
1599591656.0688617	1599591656.0688617	273.0	4.0	4	1.0	1.0
1599591656.5882971	1599591656.5882971	274.0	1.0	1	0.5	0.5
1599591656.841328	1599591656.841328	275.0	3.0	3	0.8660254037844386	0.8660254037844386
1599591657.191605	1599591657.191605	276.0	4.0	4	1.0	1.0
1599591657.5442767	1599591657.5442767	277.0	4.0	4	1.0	1.0
1599591657.8909786	1599591657.8909786	278.0	3.0	3	0.8660254037844386	0.8660254037844386
1599591658.2417088	1599591658.2417088	279.0	2.0	2	0.7071067811865476	0.7071067811865476
1599591658.595688	1599591658.595688	280.0	2.0	2	0.7071067811865476	0.7071067811865476
1599591658.9515538	1599591658.9515538	281.0	1.0	1	0.5	0.5
1599591659.3039436	1599591659.3039436	282.0	2.0	2	0.7071067811865476	0.7071067811865476
1599591659.6591995	1599591659.6591995	283.0	4.0	4	1.0	1.0
1599591660.0039756	1599591660.0039756	284.0	0.0	0	0	0.5
1599591660.3510573	1599591660.3510573	285.0	3.0	3	0.8660254037844386	0.8660254037844386
1599591660.7046113	1599591660.7046113	286.0	1.0	1	0.5	0.5
1599591661.0657065	1599591661.0657065	287.0	0.0	0	0	0.5
1599591661.409804	1599591661.409804	288.0	5.0	5	1.118033988749895	1.118033988749895
1599591661.7661932	1599591661.7661932	289.0	4.0	4	1.0	1.0
1599591662.1154556	1599591662.1154556	290.0	2.0	2	0.7071067811865476	0.7071067811865476
1599591662.465437	1599591662.465437	291.0	2.0	2	0.7071067811865476	0.7071067811865476
1599591662.8208866	1599591662.8208866	292.0	3.0	3	0.8660254037844386	0.8660254037844386
1599591663.175296	1599591663.175296	293.0	1.0	1	0.5	0.5
1599591663.524807	1599591663.524807	294.0	3.0	3	0.8660254037844386	0.8660254037844386
1599591663.8928525	1599591663.8928525	295.0	2.0	2	0.7071067811865476	0.7071067811865476
1599591664.2789156	1599591664.2789156	296.0	2.0	2	0.7071067811865476	0.7071067811865476
1599591664.660542	1599591664.660542	297.0	1.0	1	0.5	0.5
1599591665.0539348	1599591665.0539348	298.0	1.0	1	0.5	0.5
1599591665.4431593	1599591665.4431593	299.0	3.0	3	0.8660254037844386	0.8660254037844386
1599591665.8286927	1599591665.8286927	300.0	2.0	2	0.7071067811865476	0.7071067811865476
1599591666.306194	1599591666.306194	301.0	1.0	1	0.5	0.5
1599591666.6080604	1599591666.6080604	302.0	0.0	0	0	0.5
1599591667.259872	1599591667.259872	303.0	3.0	3	0.8660254037844386	0.8660254037844386
1599591667.520906	1599591667.520906	304.0	1.0	1	0.5	0.5
1599591667.7715163	1599591667.7715163	305.0	3.0	3	0.8660254037844386	0.8660254037844386
1599591668.1492286	1599591668.1492286	306.0	0.0	0	0	0.5
1599591668.5398064	1599591668.5398064	307.0	0.0	0	0	0.5
1599591668.9241118	1599591668.9241118	308.0	5.0	5	1.118033988749895	1.118033988749895
1599591669.3133547	1599591669.3133547	309.0	2.0	2	0.7071067811865476	0.7071067811865476
1599591669.7017324	1599591669.7017324	310.0	4.0	4	1.0	1.0
1599591670.0865073	1599591670.0865073	311.0	2.0	2	0.7071067811865476	0.7071067811865476
1599591670.4743412	1599591670.4743412	312.0	3.0	3	0.8660254037844386	0.8660254037844386
1599591670.861151	1599591670.861151	313.0	7.0	7	1.3228756555322954	1.3228756555322954
1599591671.2452252	1599591671.2452252	314.0	5.0	5	1.118033988749895	1.118033988749895
1599591671.650918	1599591671.650918	315.0	1.0	1	0.5	0.5
1599591672.0747688	1599591672.0747688	316.0	2.0	2	0.7071067811865476	0.7071067811865476
1599591672.5062013	1599591672.5062013	317.0	2.0	2	0.7071067811865476	0.7071067811865476
1599591672.9289286	1599591672.9289286	318.0	6.0	6	1.224744871391589	1.224744871391589
1599591673.3580716	1599591673.3580716	319.0	7.0	7	1.3228756555322954	1.3228756555322954
1599591673.7778857	1599591673.7778857	320.0	5.0	5	1.118033988749895	1.118033988749895
1599591674.2065961	1599591674.2065961	321.0	3.0	3	0.8660254037844386	0.8660254037844386
1599591674.6432447	1599591674.6432447	322.0	2.0	2	0.7071067811865476	0.7071067811865476
1599591675.0596008	1599591675.0596008	323.0	5.0	5	1.118033988749895	1.118033988749895
1599591675.4870298	1599591675.4870298	324.0	3.0	3	0.8660254037844386	0.8660254037844386
1599591675.9140208	1599591675.9140208	325.0	4.0	4	1.0	1.0
1599591676.3308308	1599591676.3308308	326.0	3.0	3	0.8660254037844386	0.8660254037844386
1599591676.7645116	1599591676.7645116	327.0	3.0	3	0.8660254037844386	0.8660254037844386
1599591677.188995	1599591677.188995	328.0	4.0	4	1.0	1.0
1599591677.6116762	1599591677.6116762	329.0	4.0	4	1.0	1.0
1599591678.0404165	1599591678.0404165	330.0	4.0	4	1.0	1.0
1599591678.4644136	1599591678.4644136	331.0	0.0	0	0	0.5
1599591678.8925188	1599591678.8925188	332.0	1.0	1	0.5	0.5
1599591679.3192883	1599591679.3192883	333.0	6.0	6	1.224744871391589	1.224744871391589
1599591679.7470658	1599591679.7470658	334.0	3.0	3	0.8660254037844386	0.8660254037844386
1599591680.185159	1599591680.185159	335.0	5.0	5	1.118033988749895	1.118033988749895
1599591680.6452866	1599591680.6452866	336.0	5.0	5	1.118033988749895	1.118033988749895
1599591681.1186068	1599591681.1186068	337.0	8.0	8	1.4142135623730951	1.4142135623730951
1599591681.592609	1599591681.592609	338.0	2.0	2	0.7071067811865476	0.7071067811865476
1599591682.055611	1599591682.055611	339.0	7.0	7	1.3228756555322954	1.3228756555322954
1599591682.530597	1599591682.530597	340.0	5.0	5	1.118033988749895	1.118033988749895
1599591682.993418	1599591682.993418	341.0	3.0	3	0.8660254037844386	0.8660254037844386
1599591683.4649777	1599591683.4649777	342.0	6.0	6	1.224744871391589	1.224744871391589
1599591683.9304922	1599591683.9304922	343.0	7.0	7	1.3228756555322954	1.3228756555322954
1599591684.3951025	1599591684.3951025	344.0	3.0	3	0.8660254037844386	0.8660254037844386
1599591684.8643572	1599591684.8643572	345.0	3.0	3	0.8660254037844386	0.8660254037844386
1599591685.342699	1599591685.342699	346.0	4.0	4	1.0	1.0
1599591685.801708	1599591685.801708	347.0	3.0	3	0.8660254037844386	0.8660254037844386
1599591686.2696884	1599591686.2696884	348.0	6.0	6	1.224744871391589	1.224744871391589
1599591686.7408957	1599591686.7408957	349.0	8.0	8	1.4142135623730951	1.4142135623730951
1599591687.206924	1599591687.206924	350.0	4.0	4	1.0	1.0
1599591687.675792	1599591687.675792	351.0	4.0	4	1.0	1.0
1599591688.1487327	1599591688.1487327	352.0	4.0	4	1.0	1.0
1599591688.6208544	1599591688.6208544	353.0	1.0	1	0.5	0.5
1599591689.0803943	1599591689.0803943	354.0	7.0	7	1.3228756555322954	1.3228756555322954
1599591689.5686235	1599591689.5686235	355.0	2.0	2	0.7071067811865476	0.7071067811865476
1599591690.088803	1599591690.088803	356.0	5.0	5	1.118033988749895	1.118033988749895
1599591690.599572	1599591690.599572	357.0	6.0	6	1.224744871391589	1.224744871391589
1599591691.1131644	1599591691.1131644	358.0	1.0	1	0.5	0.5
1599591691.6275878	1599591691.6275878	359.0	3.0	3	0.8660254037844386	0.8660254037844386
1599591692.1410139	1599591692.1410139	360.0	2.0	2	0.7071067811865476	0.7071067811865476
1599591692.6720462	1599591692.6720462	361.0	2.0	2	0.7071067811865476	0.7071067811865476
1599591693.1730583	1599591693.1730583	362.0	2.0	2	0.7071067811865476	0.7071067811865476
1599591693.6879652	1599591693.6879652	363.0	5.0	5	1.118033988749895	1.118033988749895
1599591694.2047393	1599591694.2047393	364.0	2.0	2	0.7071067811865476	0.7071067811865476
1599591694.7176075	1599591694.7176075	365.0	2.0	2	0.7071067811865476	0.7071067811865476
1599591695.2422209	1599591695.2422209	366.0	0.0	0	0	0.5
1599591695.7620182	1599591695.7620182	367.0	4.0	4	1.0	1.0
1599591696.2783859	1599591696.2783859	368.0	4.0	4	1.0	1.0
1599591696.7813802	1599591696.7813802	369.0	1.0	1	0.5	0.5
1599591697.2957878	1599591697.2957878	370.0	3.0	3	0.8660254037844386	0.8660254037844386
1599591697.8203068	1599591697.8203068	371.0	3.0	3	0.8660254037844386	0.8660254037844386
1599591698.3322783	1599591698.3322783	372.0	3.0	3	0.8660254037844386	0.8660254037844386
1599591698.8877852	1599591698.8877852	373.0	3.0	3	0.8660254037844386	0.8660254037844386
1599591699.3573003	1599591699.3573003	374.0	1.0	1	0.5	0.5
1599591699.9005015	1599591699.9005015	375.0	7.0	7	1.3228756555322954	1.3228756555322954
1599591700.4736452	1599591700.4736452	376.0	0.0	0	0	0.5
1599591701.0295212	1599591701.0295212	377.0	1.0	1	0.5	0.5
1599591701.6032815	1599591701.6032815	378.0	1.0	1	0.5	0.5
1599591702.1664813	1599591702.1664813	379.0	2.0	2	0.7071067811865476	0.7071067811865476
1599591702.7411518	1599591702.7411518	380.0	1.0	1	0.5	0.5
1599591703.3071883	1599591703.3071883	381.0	5.0	5	1.118033988749895	1.118033988749895
1599591703.8636587	1599591703.8636587	382.0	3.0	3	0.8660254037844386	0.8660254037844386
1599591704.4421916	1599591704.4421916	383.0	6.0	6	1.224744871391589	1.224744871391589
1599591704.9987366	1599591704.9987366	384.0	3.0	3	0.8660254037844386	0.8660254037844386
1599591705.5726535	1599591705.5726535	385.0	6.0	6	1.224744871391589	1.224744871391589
1599591706.1480165	1599591706.1480165	386.0	1.0	1	0.5	0.5
1599591706.7094293	1599591706.7094293	387.0	0.0	0	0	0.5
1599591707.2783132	1599591707.2783132	388.0	6.0	6	1.224744871391589	1.224744871391589
1599591707.938976	1599591707.938976	389.0	2.0	2	0.7071067811865476	0.7071067811865476
1599591708.402411	1599591708.402411	390.0	2.0	2	0.7071067811865476	0.7071067811865476
1599591708.9729898	1599591708.9729898	391.0	1.0	1	0.5	0.5
1599591709.533569	1599591709.533569	392.0	1.0	1	0.5	0.5
1599591710.1081555	1599591710.1081555	393.0	1.0	1	0.5	0.5
1599591710.6689873	1599591710.6689873	394.0	4.0	4	1.0	1.0
1599591711.266132	1599591711.266132	395.0	2.0	2	0.7071067811865476	0.7071067811865476
1599591711.8929775	1599591711.8929775	396.0	4.0	4	1.0	1.0
1599591712.499477	1599591712.499477	397.0	1.0	1	0.5	0.5
1599591713.1300535	1599591713.1300535	398.0	2.0	2	0.7071067811865476	0.7071067811865476
1599591713.7747428	1599591713.7747428	399.0	5.0	5	1.118033988749895	1.118033988749895
1599591714.3810127	1599591714.3810127	400.0	3.0	3	0.8660254037844386	0.8660254037844386
1599591715.004985	1599591715.004985	401.0	2.0	2	0.7071067811865476	0.7071067811865476
1599591715.6314359	1599591715.6314359	402.0	2.0	2	0.7071067811865476	0.7071067811865476
1599591716.253552	1599591716.253552	403.0	2.0	2	0.7071067811865476	0.7071067811865476
1599591716.8775034	1599591716.8775034	404.0	4.0	4	1.0	1.0
1599591717.501058	1599591717.501058	405.0	2.0	2	0.7071067811865476	0.7071067811865476
1599591718.1373727	1599591718.1373727	406.0	2.0	2	0.7071067811865476	0.7071067811865476
1599591718.741022	1599591718.741022	407.0	4.0	4	1.0	1.0
1599591719.3572938	1599591719.3572938	408.0	1.0	1	0.5	0.5
1599591719.9934978	1599591719.9934978	409.0	2.0	2	0.7071067811865476	0.7071067811865476
1599591720.6279287	1599591720.6279287	410.0	3.0	3	0.8660254037844386	0.8660254037844386
1599591721.2358034	1599591721.2358034	411.0	3.0	3	0.8660254037844386	0.8660254037844386
1599591721.8504689	1599591721.8504689	412.0	1.0	1	0.5	0.5
1599591722.4826996	1599591722.4826996	413.0	1.0	1	0.5	0.5
1599591723.1129184	1599591723.1129184	414.0	6.0	6	1.224744871391589	1.224744871391589
1599591723.7558513	1599591723.7558513	415.0	1.0	1	0.5	0.5
1599591724.4463453	1599591724.4463453	416.0	2.0	2	0.7071067811865476	0.7071067811865476
1599591725.125181	1599591725.125181	417.0	2.0	2	0.7071067811865476	0.7071067811865476
1599591725.8200495	1599591725.8200495	418.0	1.0	1	0.5	0.5
1599591726.4958303	1599591726.4958303	419.0	6.0	6	1.224744871391589	1.224744871391589
1599591727.1915107	1599591727.1915107	420.0	0.0	0	0	0.5
1599591727.865589	1599591727.865589	421.0	4.0	4	1.0	1.0
1599591728.5614452	1599591728.5614452	422.0	1.0	1	0.5	0.5
1599591729.2364848	1599591729.2364848	423.0	4.0	4	1.0	1.0
1599591729.9287949	1599591729.9287949	424.0	2.0	2	0.7071067811865476	0.7071067811865476
1599591730.6075435	1599591730.6075435	425.0	5.0	5	1.118033988749895	1.118033988749895
1599591731.2974987	1599591731.2974987	426.0	4.0	4	1.0	1.0
1599591731.9820366	1599591731.9820366	427.0	3.0	3	0.8660254037844386	0.8660254037844386
1599591732.6780384	1599591732.6780384	428.0	0.0	0	0	0.5
1599591733.3550715	1599591733.3550715	429.0	4.0	4	1.0	1.0
1599591734.0501084	1599591734.0501084	430.0	4.0	4	1.0	1.0
1599591734.724387	1599591734.724387	431.0	2.0	2	0.7071067811865476	0.7071067811865476
1599591735.4171646	1599591735.4171646	432.0	2.0	2	0.7071067811865476	0.7071067811865476
1599591736.0954099	1599591736.0954099	433.0	3.0	3	0.8660254037844386	0.8660254037844386
1599591736.7970426	1599591736.7970426	434.0	3.0	3	0.8660254037844386	0.8660254037844386
1599591737.4388638	1599591737.4388638	435.0	5.0	5	1.118033988749895	1.118033988749895
1599591738.075402	1599591738.075402	436.0	0.0	0	0	0.5
1599591738.6707091	1599591738.6707091	437.0	1.0	1	0.5	0.5
1599591739.3005736	1599591739.3005736	438.0	2.0	2	0.7071067811865476	0.7071067811865476
1599591739.9117153	1599591739.9117153	439.0	1.0	1	0.5	0.5
1599591740.5345118	1599591740.5345118	440.0	2.0	2	0.7071067811865476	0.7071067811865476
1599591741.1432395	1599591741.1432395	441.0	7.0	7	1.3228756555322954	1.3228756555322954
1599591741.7621613	1599591741.7621613	442.0	3.0	3	0.8660254037844386	0.8660254037844386
1599591742.3787105	1599591742.3787105	443.0	5.0	5	1.118033988749895	1.118033988749895
1599591743.0000827	1599591743.0000827	444.0	3.0	3	0.8660254037844386	0.8660254037844386
1599591743.6209276	1599591743.6209276	445.0	4.0	4	1.0	1.0
1599591744.230025	1599591744.230025	446.0	2.0	2	0.7071067811865476	0.7071067811865476
1599591744.8449297	1599591744.8449297	447.0	4.0	4	1.0	1.0
1599591745.4696612	1599591745.4696612	448.0	3.0	3	0.8660254037844386	0.8660254037844386
1599591746.081849	1599591746.081849	449.0	1.0	1	0.5	0.5
1599591746.7039144	1599591746.7039144	450.0	2.0	2	0.7071067811865476	0.7071067811865476
1599591747.3121166	1599591747.3121166	451.0	6.0	6	1.224744871391589	1.224744871391589
1599591747.9308195	1599591747.9308195	452.0	2.0	2	0.7071067811865476	0.7071067811865476
1599591748.5477943	1599591748.5477943	453.0	4.0	4	1.0	1.0
1599591749.1659217	1599591749.1659217	454.0	4.0	4	1.0	1.0
1599591749.7575467	1599591749.7575467	455.0	3.0	3	0.8660254037844386	0.8660254037844386
1599591750.3197043	1599591750.3197043	456.0	4.0	4	1.0	1.0
1599591750.8727627	1599591750.8727627	457.0	4.0	4	1.0	1.0
1599591751.4293776	1599591751.4293776	458.0	5.0	5	1.118033988749895	1.118033988749895
1599591751.977956	1599591751.977956	459.0	6.0	6	1.224744871391589	1.224744871391589
1599591752.5395105	1599591752.5395105	460.0	2.0	2	0.7071067811865476	0.7071067811865476
1599591753.0912821	1599591753.0912821	461.0	4.0	4	1.0	1.0
1599591753.6490078	1599591753.6490078	462.0	5.0	5	1.118033988749895	1.118033988749895
1599591754.213569	1599591754.213569	463.0	2.0	2	0.7071067811865476	0.7071067811865476
1599591754.7666166	1599591754.7666166	464.0	7.0	7	1.3228756555322954	1.3228756555322954
1599591755.3153079	1599591755.3153079	465.0	5.0	5	1.118033988749895	1.118033988749895
1599591755.8917584	1599591755.8917584	466.0	3.0	3	0.8660254037844386	0.8660254037844386
1599591756.4267106	1599591756.4267106	467.0	6.0	6	1.224744871391589	1.224744871391589
1599591756.978998	1599591756.978998	468.0	6.0	6	1.224744871391589	1.224744871391589
1599591757.5484145	1599591757.5484145	469.0	4.0	4	1.0	1.0
1599591758.088045	1599591758.088045	470.0	2.0	2	0.7071067811865476	0.7071067811865476
1599591758.644336	1599591758.644336	471.0	3.0	3	0.8660254037844386	0.8660254037844386
1599591759.2160246	1599591759.2160246	472.0	2.0	2	0.7071067811865476	0.7071067811865476
1599591759.773074	1599591759.773074	473.0	8.0	8	1.4142135623730951	1.4142135623730951
1599591760.3244207	1599591760.3244207	474.0	3.0	3	0.8660254037844386	0.8660254037844386
1599591760.8616588	1599591760.8616588	475.0	0.0	0	0	0.5
1599591761.34505	1599591761.34505	476.0	5.0	5	1.118033988749895	1.118033988749895
1599591761.85305	1599591761.85305	477.0	3.0	3	0.8660254037844386	0.8660254037844386
1599591762.348126	1599591762.348126	478.0	7.0	7	1.3228756555322954	1.3228756555322954
1599591762.8523533	1599591762.8523533	479.0	2.0	2	0.7071067811865476	0.7071067811865476
1599591763.3583007	1599591763.3583007	480.0	5.0	5	1.118033988749895	1.118033988749895
1599591763.8558633	1599591763.8558633	481.0	1.0	1	0.5	0.5
1599591764.3415813	1599591764.3415813	482.0	4.0	4	1.0	1.0
1599591764.8471305	1599591764.8471305	483.0	0.0	0	0	0.5
1599591765.351325	1599591765.351325	484.0	3.0	3	0.8660254037844386	0.8660254037844386
1599591765.8508713	1599591765.8508713	485.0	5.0	5	1.118033988749895	1.118033988749895
1599591766.3456292	1599591766.3456292	486.0	2.0	2	0.7071067811865476	0.7071067811865476
1599591766.847452	1599591766.847452	487.0	3.0	3	0.8660254037844386	0.8660254037844386
1599591767.35379	1599591767.35379	488.0	4.0	4	1.0	1.0
1599591767.85004	1599591767.85004	489.0	2.0	2	0.7071067811865476	0.7071067811865476
1599591768.3493817	1599591768.3493817	490.0	1.0	1	0.5	0.5
1599591768.84944	1599591768.84944	491.0	1.0	1	0.5	0.5
1599591769.3511186	1599591769.3511186	492.0	3.0	3	0.8660254037844386	0.8660254037844386
1599591769.8490765	1599591769.8490765	493.0	3.0	3	0.8660254037844386	0.8660254037844386
1599591770.3551497	1599591770.3551497	494.0	1.0	1	0.5	0.5
1599591771.1322508	1599591771.1322508	495.0	4.0	4	1.0	1.0
1599591771.2811317	1599591771.2811317	496.0	4.0	4	1.0	1.0
1599591771.7330928	1599591771.7330928	497.0	4.0	4	1.0	1.0
1599591772.1875503	1599591772.1875503	498.0	4.0	4	1.0	1.0
1599591772.6314292	1599591772.6314292	499.0	1.0	1	0.5	0.5
1599591773.0786037	1599591773.0786037	500.0	4.0	4	1.0	1.0
1599591773.5335407	1599591773.5335407	501.0	6.0	6	1.224744871391589	1.224744871391589
1599591773.986497	1599591773.986497	502.0	2.0	2	0.7071067811865476	0.7071067811865476
1599591774.4334729	1599591774.4334729	503.0	2.0	2	0.7071067811865476	0.7071067811865476
1599591774.8877556	1599591774.8877556	504.0	3.0	3	0.8660254037844386	0.8660254037844386
1599591775.3300478	1599591775.3300478	505.0	1.0	1	0.5	0.5
1599591775.787987	1599591775.787987	506.0	3.0	3	0.8660254037844386	0.8660254037844386
1599591776.2339187	1599591776.2339187	507.0	1.0	1	0.5	0.5
1599591776.684117	1599591776.684117	508.0	3.0	3	0.8660254037844386	0.8660254037844386
1599591777.1303346	1599591777.1303346	509.0	3.0	3	0.8660254037844386	0.8660254037844386
1599591777.5832896	1599591777.5832896	510.0	4.0	4	1.0	1.0
1599591778.0327003	1599591778.0327003	511.0	2.0	2	0.7071067811865476	0.7071067811865476
1599591778.502113	1599591778.502113	512.0	1.0	1	0.5	0.5
1599591778.928166	1599591778.928166	513.0	2.0	2	0.7071067811865476	0.7071067811865476
1599591779.3790815	1599591779.3790815	514.0	2.0	2	0.7071067811865476	0.7071067811865476
1599591779.8163638	1599591779.8163638	515.0	1.0	1	0.5	0.5
1599591780.2240994	1599591780.2240994	516.0	4.0	4	1.0	1.0
1599591780.62532	1599591780.62532	517.0	0.0	0	0	0.5
1599591781.0297515	1599591781.0297515	518.0	5.0	5	1.118033988749895	1.118033988749895
1599591781.4348164	1599591781.4348164	519.0	3.0	3	0.8660254037844386	0.8660254037844386
1599591781.8386514	1599591781.8386514	520.0	3.0	3	0.8660254037844386	0.8660254037844386
1599591782.2445128	1599591782.2445128	521.0	5.0	5	1.118033988749895	1.118033988749895
1599591782.649181	1599591782.649181	522.0	3.0	3	0.8660254037844386	0.8660254037844386
1599591783.0559013	1599591783.0559013	523.0	6.0	6	1.224744871391589	1.224744871391589
1599591783.4579532	1599591783.4579532	524.0	7.0	7	1.3228756555322954	1.3228756555322954
1599591783.8638952	1599591783.8638952	525.0	3.0	3	0.8660254037844386	0.8660254037844386
1599591784.2672682	1599591784.2672682	526.0	0.0	0	0	0.5
1599591784.6769931	1599591784.6769931	527.0	6.0	6	1.224744871391589	1.224744871391589
1599591785.08231	1599591785.08231	528.0	3.0	3	0.8660254037844386	0.8660254037844386
1599591785.4839742	1599591785.4839742	529.0	4.0	4	1.0	1.0
1599591785.89209	1599591785.89209	530.0	1.0	1	0.5	0.5
1599591786.2951517	1599591786.2951517	531.0	1.0	1	0.5	0.5
1599591786.703872	1599591786.703872	532.0	4.0	4	1.0	1.0
1599591787.104623	1599591787.104623	533.0	1.0	1	0.5	0.5
1599591787.5114193	1599591787.5114193	534.0	4.0	4	1.0	1.0
1599591787.8988113	1599591787.8988113	535.0	2.0	2	0.7071067811865476	0.7071067811865476
1599591788.2667718	1599591788.2667718	536.0	6.0	6	1.224744871391589	1.224744871391589
1599591788.6349945	1599591788.6349945	537.0	3.0	3	0.8660254037844386	0.8660254037844386
1599591789.0069113	1599591789.0069113	538.0	4.0	4	1.0	1.0
1599591789.3561473	1599591789.3561473	539.0	3.0	3	0.8660254037844386	0.8660254037844386
1599591789.7428088	1599591789.7428088	540.0	2.0	2	0.7071067811865476	0.7071067811865476
1599591790.0873885	1599591790.0873885	541.0	3.0	3	0.8660254037844386	0.8660254037844386
1599591790.488565	1599591790.488565	542.0	2.0	2	0.7071067811865476	0.7071067811865476
1599591790.8153362	1599591790.8153362	543.0	2.0	2	0.7071067811865476	0.7071067811865476
1599591791.183357	1599591791.183357	544.0	3.0	3	0.8660254037844386	0.8660254037844386
1599591791.5439813	1599591791.5439813	545.0	3.0	3	0.8660254037844386	0.8660254037844386
1599591791.9075866	1599591791.9075866	546.0	6.0	6	1.224744871391589	1.224744871391589
1599591792.2811258	1599591792.2811258	547.0	3.0	3	0.8660254037844386	0.8660254037844386
1599591792.6400666	1599591792.6400666	548.0	3.0	3	0.8660254037844386	0.8660254037844386
1599591793.0024297	1599591793.0024297	549.0	2.0	2	0.7071067811865476	0.7071067811865476
1599591793.3734663	1599591793.3734663	550.0	2.0	2	0.7071067811865476	0.7071067811865476
1599591793.731081	1599591793.731081	551.0	3.0	3	0.8660254037844386	0.8660254037844386
1599591794.100033	1599591794.100033	552.0	2.0	2	0.7071067811865476	0.7071067811865476
1599591794.4597392	1599591794.4597392	553.0	7.0	7	1.3228756555322954	1.3228756555322954
1599591794.828334	1599591794.828334	554.0	3.0	3	0.8660254037844386	0.8660254037844386
1599591795.20877	1599591795.20877	555.0	2.0	2	0.7071067811865476	0.7071067811865476
1599591795.6108763	1599591795.6108763	556.0	3.0	3	0.8660254037844386	0.8660254037844386
1599591796.002472	1599591796.002472	557.0	5.0	5	1.118033988749895	1.118033988749895
1599591796.4106364	1599591796.4106364	558.0	1.0	1	0.5	0.5
1599591796.8102808	1599591796.8102808	559.0	1.0	1	0.5	0.5
1599591797.2098417	1599591797.2098417	560.0	1.0	1	0.5	0.5
1599591797.6199958	1599591797.6199958	561.0	3.0	3	0.8660254037844386	0.8660254037844386
1599591798.0089328	1599591798.0089328	562.0	3.0	3	0.8660254037844386	0.8660254037844386
1599591798.4174545	1599591798.4174545	563.0	4.0	4	1.0	1.0
1599591798.8174102	1599591798.8174102	564.0	4.0	4	1.0	1.0
1599591799.2219758	1599591799.2219758	565.0	1.0	1	0.5	0.5
1599591799.6114655	1599591799.6114655	566.0	6.0	6	1.224744871391589	1.224744871391589
1599591800.0184345	1599591800.0184345	567.0	4.0	4	1.0	1.0
1599591800.412639	1599591800.412639	568.0	5.0	5	1.118033988749895	1.118033988749895
1599591800.8225617	1599591800.8225617	569.0	5.0	5	1.118033988749895	1.118033988749895
1599591801.2165303	1599591801.2165303	570.0	3.0	3	0.8660254037844386	0.8660254037844386
1599591801.6242826	1599591801.6242826	571.0	2.0	2	0.7071067811865476	0.7071067811865476
1599591802.024712	1599591802.024712	572.0	2.0	2	0.7071067811865476	0.7071067811865476
1599591802.426991	1599591802.426991	573.0	2.0	2	0.7071067811865476	0.7071067811865476
1599591802.8246636	1599591802.8246636	574.0	2.0	2	0.7071067811865476	0.7071067811865476
1599591803.2386532	1599591803.2386532	575.0	1.0	1	0.5	0.5
1599591803.6823318	1599591803.6823318	576.0	7.0	7	1.3228756555322954	1.3228756555322954
1599591804.123772	1599591804.123772	577.0	4.0	4	1.0	1.0
1599591804.5669174	1599591804.5669174	578.0	2.0	2	0.7071067811865476	0.7071067811865476
1599591805.0054605	1599591805.0054605	579.0	6.0	6	1.224744871391589	1.224744871391589
1599591805.4379327	1599591805.4379327	580.0	1.0	1	0.5	0.5
1599591805.8855472	1599591805.8855472	581.0	2.0	2	0.7071067811865476	0.7071067811865476
1599591806.3312523	1599591806.3312523	582.0	3.0	3	0.8660254037844386	0.8660254037844386
1599591806.7689254	1599591806.7689254	583.0	2.0	2	0.7071067811865476	0.7071067811865476
1599591807.2076068	1599591807.2076068	584.0	7.0	7	1.3228756555322954	1.3228756555322954
1599591807.6520872	1599591807.6520872	585.0	3.0	3	0.8660254037844386	0.8660254037844386
1599591808.0901194	1599591808.0901194	586.0	4.0	4	1.0	1.0
1599591808.5332346	1599591808.5332346	587.0	7.0	7	1.3228756555322954	1.3228756555322954
1599591808.9794264	1599591808.9794264	588.0	6.0	6	1.224744871391589	1.224744871391589
1599591809.4702346	1599591809.4702346	589.0	5.0	5	1.118033988749895	1.118033988749895
1599591809.8592682	1599591809.8592682	590.0	4.0	4	1.0	1.0
1599591810.295817	1599591810.295817	591.0	2.0	2	0.7071067811865476	0.7071067811865476
1599591810.7407217	1599591810.7407217	592.0	7.0	7	1.3228756555322954	1.3228756555322954
1599591811.4770138	1599591811.4770138	593.0	4.0	4	1.0	1.0
1599591811.9121325	1599591811.9121325	594.0	6.0	6	1.224744871391589	1.224744871391589
1599591812.0655992	1599591812.0655992	595.0	7.0	7	1.3228756555322954	1.3228756555322954
1599591812.559697	1599591812.559697	596.0	13.0	13	1.8027756377319946	1.8027756377319946
1599591813.043992	1599591813.043992	597.0	8.0	8	1.4142135623730951	1.4142135623730951
1599591813.5207822	1599591813.5207822	598.0	5.0	5	1.118033988749895	1.118033988749895
1599591814.0111377	1599591814.0111377	599.0	5.0	5	1.118033988749895	1.118033988749895
1599591814.4919283	1599591814.4919283	600.0	3.0	3	0.8660254037844386	0.8660254037844386