# <?xml version="1.0" ?>
# <DataFileHeader>
#   <Variables>
#     <Element name="PulseProgram" type="dict">
#       <Element name="PulseProgram" type="str">C:/Users/ions/Documents/IonControl/project_dir/QuditLab/config/PulseProgramsPlus/Ablation_NeutralFluorescence.ppp</Element>
#       <Element name="NULL" type="Quantity">0</Element>
#       <Element name="FFFFFFFF" type="Quantity">18446744073709551615</Element>
#       <Element name="INTERRUPT_EXITCODE" type="Quantity">18446198715942174720</Element>
#       <Element name="InitializationShutter" type="int">5154</Element>
#       <Element name="NaturalAblation_mask" type="int">256</Element>
#       <Element name="NaturalAblation" type="int">256</Element>
#       <Element name="EndShutter" type="int">5154</Element>
#       <Element name="ShutterDelayTime" type="Quantity">0.5 s</Element>
#       <Element name="WindowStartTime" type="Quantity">145 us</Element>
#       <Element name="DetectTime" type="Quantity">20 us</Element>
#       <Element name="DummyVar" type="int">0</Element>
#       <Element name="experiments" type="int">1</Element>
#       <Element name="DetectCounters" type="int">1</Element>
#       <Element name="endLabel" type="Quantity">18446744073709551615</Element>
#       <Element name="experimentsleft" type="Quantity">100</Element>
#       <Element name="currentexperiment" type="Quantity">0</Element>
#       <Element name="inlinevar_1" type="Quantity">1</Element>
#     </Element>
#     <Element name="Scan" type="dict">
#       <Element name="scanParameter" type="str">DummyVar</Element>
#       <Element name="scanTarget" type="str">Internal</Element>
#       <Element name="scantype" type="int">0</Element>
#       <Element name="scanMode" type="int">0</Element>
#       <Element name="xUnit" type="str"></Element>
#       <Element name="xExpression" type="str"></Element>
#       <Element name="loadPP" type="bool">True</Element>
#       <Element name="loadPPName" type="str">Ablation_NeutralFluorescence_Rad.ppp</Element>
#       <Element name="parallelInternalScanParameter" type="str">None</Element>
#     </Element>
#     <ColumnSpec>timeTickFirst, timeTickLast, x, PMT Count, PMT Count_raw, PMT Count_bottom, PMT Count_top</ColumnSpec>
#     <Element name="comment" type="str"></Element>
#     <Element name="lastDataAquired" type="datetime">2020-09-08 19:49:41.646662+00:00</Element>
#     <Element name="name" type="str"></Element>
#     <Element name="traceCreation" type="datetime">2020-09-08 19:46:01.094231+00:00</Element>
#     <Element name="traceFinalized" type="datetime">2020-09-08 19:49:41.776636+00:00</Element>
#     <TracePlottingList>
#       <TracePlotting _bottomColumn="PMT Count_bottom" _filtColumn="None" _fitFunction="None" _heightColumn="height" _rawColumn="PMT Count_raw" _topColumn="PMT Count_top" _xColumn="x" _yColumn="PMT Count" fill="True" name="PMT Count" properties="&lt;trace.PlottedTrace.PlottedTraceProperties object at 0x000002A984F4BBE0&gt;" style="0" type="0" windowName="Scan Data" xAxisLabel="DummyVar" xAxisUnit="" yAxisLabel="None">
#         <PlottedTraceProperties averageSameX="False" averageType="0" combinePoints="0"/>
#       </TracePlotting>
#     </TracePlottingList>
#   </Variables>
# </DataFileHeader>
1599594359.7838957	1599594359.7838957	1.0	1.0	1	0.5	0.5
1599594361.0920503	1599594361.0920503	2.0	2.0	2	0.7071067811865476	0.7071067811865476
1599594362.1607356	1599594362.1607356	3.0	4.0	4	1.0	1.0
1599594362.479667	1599594362.479667	4.0	7.0	7	1.3228756555322954	1.3228756555322954
1599594362.479667	1599594362.479667	5.0	3.0	3	0.8660254037844386	0.8660254037844386
1599594362.8153908	1599594362.8153908	6.0	7.0	7	1.3228756555322954	1.3228756555322954
1599594363.3034873	1599594363.3034873	7.0	3.0	3	0.8660254037844386	0.8660254037844386
1599594363.7981706	1599594363.7981706	8.0	3.0	3	0.8660254037844386	0.8660254037844386
1599594364.31528	1599594364.31528	9.0	3.0	3	0.8660254037844386	0.8660254037844386
1599594364.8091497	1599594364.8091497	10.0	5.0	5	1.118033988749895	1.118033988749895
1599594365.3033223	1599594365.3033223	11.0	2.0	2	0.7071067811865476	0.7071067811865476
1599594365.8100572	1599594365.8100572	12.0	5.0	5	1.118033988749895	1.118033988749895
1599594366.302603	1599594366.302603	13.0	0.0	0	0	0.5
1599594366.807948	1599594366.807948	14.0	5.0	5	1.118033988749895	1.118033988749895
1599594367.2837064	1599594367.2837064	15.0	3.0	3	0.8660254037844386	0.8660254037844386
1599594367.7378383	1599594367.7378383	16.0	3.0	3	0.8660254037844386	0.8660254037844386
1599594368.1841779	1599594368.1841779	17.0	3.0	3	0.8660254037844386	0.8660254037844386
1599594368.6365633	1599594368.6365633	18.0	2.0	2	0.7071067811865476	0.7071067811865476
1599594369.0830064	1599594369.0830064	19.0	7.0	7	1.3228756555322954	1.3228756555322954
1599594369.547088	1599594369.547088	20.0	2.0	2	0.7071067811865476	0.7071067811865476
1599594370.0827315	1599594370.0827315	21.0	2.0	2	0.7071067811865476	0.7071067811865476
1599594370.4324315	1599594370.4324315	22.0	3.0	3	0.8660254037844386	0.8660254037844386
1599594370.882681	1599594370.882681	23.0	2.0	2	0.7071067811865476	0.7071067811865476
1599594371.3360336	1599594371.3360336	24.0	3.0	3	0.8660254037844386	0.8660254037844386
1599594371.7836006	1599594371.7836006	25.0	2.0	2	0.7071067811865476	0.7071067811865476
1599594372.2422593	1599594372.2422593	26.0	2.0	2	0.7071067811865476	0.7071067811865476
1599594372.684118	1599594372.684118	27.0	4.0	4	1.0	1.0
1599594373.134956	1599594373.134956	28.0	3.0	3	0.8660254037844386	0.8660254037844386
1599594373.6090796	1599594373.6090796	29.0	4.0	4	1.0	1.0
1599594374.0423265	1599594374.0423265	30.0	8.0	8	1.4142135623730951	1.4142135623730951
1599594374.4959412	1599594374.4959412	31.0	5.0	5	1.118033988749895	1.118033988749895
1599594374.9434755	1599594374.9434755	32.0	4.0	4	1.0	1.0
1599594375.3962252	1599594375.3962252	33.0	1.0	1	0.5	0.5
1599594376.1675863	1599594376.1675863	34.0	2.0	2	0.7071067811865476	0.7071067811865476
1599594376.6163788	1599594376.6163788	35.0	3.0	3	0.8660254037844386	0.8660254037844386
1599594376.9704614	1599594376.9704614	36.0	6.0	6	1.224744871391589	1.224744871391589
1599594377.3002124	1599594377.3002124	37.0	4.0	4	1.0	1.0
1599594377.7919145	1599594377.7919145	38.0	4.0	4	1.0	1.0
1599594378.283357	1599594378.283357	39.0	3.0	3	0.8660254037844386	0.8660254037844386
1599594378.7812681	1599594378.7812681	40.0	4.0	4	1.0	1.0
1599594379.2807317	1599594379.2807317	41.0	1.0	1	0.5	0.5
1599594379.778154	1599594379.778154	42.0	4.0	4	1.0	1.0
1599594380.2749355	1599594380.2749355	43.0	3.0	3	0.8660254037844386	0.8660254037844386
1599594380.7602456	1599594380.7602456	44.0	6.0	6	1.224744871391589	1.224744871391589
1599594381.2588754	1599594381.2588754	45.0	2.0	2	0.7071067811865476	0.7071067811865476
1599594381.7483177	1599594381.7483177	46.0	3.0	3	0.8660254037844386	0.8660254037844386
1599594382.2507205	1599594382.2507205	47.0	1.0	1	0.5	0.5
1599594382.7383754	1599594382.7383754	48.0	1.0	1	0.5	0.5
1599594383.2435648	1599594383.2435648	49.0	4.0	4	1.0	1.0
1599594383.7286127	1599594383.7286127	50.0	1.0	1	0.5	0.5
1599594384.2335336	1599594384.2335336	51.0	2.0	2	0.7071067811865476	0.7071067811865476
1599594384.720053	1599594384.720053	52.0	3.0	3	0.8660254037844386	0.8660254037844386
1599594385.2217555	1599594385.2217555	53.0	4.0	4	1.0	1.0
1599594385.711554	1599594385.711554	54.0	2.0	2	0.7071067811865476	0.7071067811865476
1599594386.2324743	1599594386.2324743	55.0	2.0	2	0.7071067811865476	0.7071067811865476
1599594386.7742913	1599594386.7742913	56.0	4.0	4	1.0	1.0
1599594387.3173409	1599594387.3173409	57.0	3.0	3	0.8660254037844386	0.8660254037844386
1599594387.859082	1599594387.859082	58.0	1.0	1	0.5	0.5
1599594388.4044044	1599594388.4044044	59.0	2.0	2	0.7071067811865476	0.7071067811865476
1599594388.9451387	1599594388.9451387	60.0	2.0	2	0.7071067811865476	0.7071067811865476
1599594389.5013835	1599594389.5013835	61.0	1.0	1	0.5	0.5
1599594390.0430923	1599594390.0430923	62.0	4.0	4	1.0	1.0
1599594390.5900633	1599594390.5900633	63.0	4.0	4	1.0	1.0
1599594391.1225975	1599594391.1225975	64.0	7.0	7	1.3228756555322954	1.3228756555322954
1599594391.6773543	1599594391.6773543	65.0	4.0	4	1.0	1.0
1599594392.2201402	1599594392.2201402	66.0	0.0	0	0	0.5
1599594392.7656858	1599594392.7656858	67.0	3.0	3	0.8660254037844386	0.8660254037844386
1599594393.3766756	1599594393.3766756	68.0	4.0	4	1.0	1.0
1599594393.8494277	1599594393.8494277	69.0	3.0	3	0.8660254037844386	0.8660254037844386
1599594394.3898296	1599594394.3898296	70.0	8.0	8	1.4142135623730951	1.4142135623730951
1599594394.9428918	1599594394.9428918	71.0	1.0	1	0.5	0.5
1599594395.4834414	1599594395.4834414	72.0	3.0	3	0.8660254037844386	0.8660254037844386
1599594396.0291464	1599594396.0291464	73.0	3.0	3	0.8660254037844386	0.8660254037844386
1599594396.5738418	1599594396.5738418	74.0	6.0	6	1.224744871391589	1.224744871391589
1599594397.1403594	1599594397.1403594	75.0	4.0	4	1.0	1.0
1599594397.7446775	1599594397.7446775	76.0	5.0	5	1.118033988749895	1.118033988749895
1599594398.343322	1599594398.343322	77.0	0.0	0	0	0.5
1599594398.9454887	1599594398.9454887	78.0	2.0	2	0.7071067811865476	0.7071067811865476
1599594399.5386007	1599594399.5386007	79.0	2.0	2	0.7071067811865476	0.7071067811865476
1599594400.1337442	1599594400.1337442	80.0	4.0	4	1.0	1.0
1599594400.7370055	1599594400.7370055	81.0	3.0	3	0.8660254037844386	0.8660254037844386
1599594401.3357022	1599594401.3357022	82.0	7.0	7	1.3228756555322954	1.3228756555322954
1599594401.9336202	1599594401.9336202	83.0	3.0	3	0.8660254037844386	0.8660254037844386
1599594402.530785	1599594402.530785	84.0	4.0	4	1.0	1.0
1599594403.1304052	1599594403.1304052	85.0	4.0	4	1.0	1.0
1599594403.7271922	1599594403.7271922	86.0	4.0	4	1.0	1.0
1599594404.3312674	1599594404.3312674	87.0	2.0	2	0.7071067811865476	0.7071067811865476
1599594404.9208214	1599594404.9208214	88.0	6.0	6	1.224744871391589	1.224744871391589
1599594405.5256205	1599594405.5256205	89.0	8.0	8	1.4142135623730951	1.4142135623730951
1599594406.1227415	1599594406.1227415	90.0	4.0	4	1.0	1.0
1599594406.727204	1599594406.727204	91.0	3.0	3	0.8660254037844386	0.8660254037844386
1599594407.3318548	1599594407.3318548	92.0	1.0	1	0.5	0.5
1599594407.9260488	1599594407.9260488	93.0	4.0	4	1.0	1.0
1599594408.515476	1599594408.515476	94.0	2.0	2	0.7071067811865476	0.7071067811865476
1599594409.0945837	1599594409.0945837	95.0	3.0	3	0.8660254037844386	0.8660254037844386
1599594409.6457217	1599594409.6457217	96.0	7.0	7	1.3228756555322954	1.3228756555322954
1599594410.1775165	1599594410.1775165	97.0	5.0	5	1.118033988749895	1.118033988749895
1599594410.7909994	1599594410.7909994	98.0	3.0	3	0.8660254037844386	0.8660254037844386
1599594411.2538154	1599594411.2538154	99.0	7.0	7	1.3228756555322954	1.3228756555322954
1599594411.8015382	1599594411.8015382	100.0	6.0	6	1.224744871391589	1.224744871391589
1599594412.3322916	1599594412.3322916	101.0	1.0	1	0.5	0.5
1599594412.8684566	1599594412.8684566	102.0	8.0	8	1.4142135623730951	1.4142135623730951
1599594413.4114554	1599594413.4114554	103.0	7.0	7	1.3228756555322954	1.3228756555322954
1599594413.9537838	1599594413.9537838	104.0	6.0	6	1.224744871391589	1.224744871391589
1599594414.4901257	1599594414.4901257	105.0	4.0	4	1.0	1.0
1599594415.0341816	1599594415.0341816	106.0	3.0	3	0.8660254037844386	0.8660254037844386
1599594415.5760837	1599594415.5760837	107.0	2.0	2	0.7071067811865476	0.7071067811865476
1599594416.1145804	1599594416.1145804	108.0	1.0	1	0.5	0.5
1599594416.6562939	1599594416.6562939	109.0	3.0	3	0.8660254037844386	0.8660254037844386
1599594417.1896377	1599594417.1896377	110.0	2.0	2	0.7071067811865476	0.7071067811865476
1599594417.7327528	1599594417.7327528	111.0	0.0	0	0	0.5
1599594418.2630103	1599594418.2630103	112.0	4.0	4	1.0	1.0
1599594418.7990248	1599594418.7990248	113.0	4.0	4	1.0	1.0
1599594419.3491764	1599594419.3491764	114.0	5.0	5	1.118033988749895	1.118033988749895
1599594419.859342	1599594419.859342	115.0	4.0	4	1.0	1.0
1599594420.3531609	1599594420.3531609	116.0	1.0	1	0.5	0.5
1599594420.841188	1599594420.841188	117.0	6.0	6	1.224744871391589	1.224744871391589
1599594421.325606	1599594421.325606	118.0	3.0	3	0.8660254037844386	0.8660254037844386
1599594421.8006628	1599594421.8006628	119.0	3.0	3	0.8660254037844386	0.8660254037844386
1599594422.2853875	1599594422.2853875	120.0	2.0	2	0.7071067811865476	0.7071067811865476
1599594422.7789795	1599594422.7789795	121.0	5.0	5	1.118033988749895	1.118033988749895
1599594423.2625868	1599594423.2625868	122.0	0.0	0	0	0.5
1599594423.7397075	1599594423.7397075	123.0	4.0	4	1.0	1.0
1599594424.2356553	1599594424.2356553	124.0	5.0	5	1.118033988749895	1.118033988749895
1599594424.721749	1599594424.721749	125.0	2.0	2	0.7071067811865476	0.7071067811865476
1599594425.205419	1599594425.205419	126.0	6.0	6	1.224744871391589	1.224744871391589
1599594426.0701523	1599594426.0701523	127.0	3.0	3	0.8660254037844386	0.8660254037844386
1599594426.1762404	1599594426.1762404	128.0	7.0	7	1.3228756555322954	1.3228756555322954
1599594426.6611054	1599594426.6611054	129.0	3.0	3	0.8660254037844386	0.8660254037844386
1599594427.1412623	1599594427.1412623	130.0	5.0	5	1.118033988749895	1.118033988749895
1599594427.6298895	1599594427.6298895	131.0	3.0	3	0.8660254037844386	0.8660254037844386
1599594428.1081557	1599594428.1081557	132.0	4.0	4	1.0	1.0
1599594428.6040325	1599594428.6040325	133.0	4.0	4	1.0	1.0
1599594429.082382	1599594429.082382	134.0	1.0	1	0.5	0.5
1599594429.554417	1599594429.554417	135.0	1.0	1	0.5	0.5
1599594429.985437	1599594429.985437	136.0	2.0	2	0.7071067811865476	0.7071067811865476
1599594430.4243362	1599594430.4243362	137.0	2.0	2	0.7071067811865476	0.7071067811865476
1599594430.8612704	1599594430.8612704	138.0	4.0	4	1.0	1.0
1599594431.3022733	1599594431.3022733	139.0	3.0	3	0.8660254037844386	0.8660254037844386
1599594431.7308867	1599594431.7308867	140.0	2.0	2	0.7071067811865476	0.7071067811865476
1599594432.1745093	1599594432.1745093	141.0	2.0	2	0.7071067811865476	0.7071067811865476
1599594432.6040955	1599594432.6040955	142.0	3.0	3	0.8660254037844386	0.8660254037844386
1599594433.0473533	1599594433.0473533	143.0	4.0	4	1.0	1.0
1599594433.487303	1599594433.487303	144.0	2.0	2	0.7071067811865476	0.7071067811865476
1599594433.9163976	1599594433.9163976	145.0	5.0	5	1.118033988749895	1.118033988749895
1599594434.351542	1599594434.351542	146.0	4.0	4	1.0	1.0
1599594434.7929857	1599594434.7929857	147.0	2.0	2	0.7071067811865476	0.7071067811865476
1599594435.2328472	1599594435.2328472	148.0	3.0	3	0.8660254037844386	0.8660254037844386
1599594435.6697369	1599594435.6697369	149.0	2.0	2	0.7071067811865476	0.7071067811865476
1599594436.1058416	1599594436.1058416	150.0	3.0	3	0.8660254037844386	0.8660254037844386
1599594436.5419898	1599594436.5419898	151.0	5.0	5	1.118033988749895	1.118033988749895
1599594437.1882358	1599594437.1882358	152.0	2.0	2	0.7071067811865476	0.7071067811865476
1599594437.4154885	1599594437.4154885	153.0	1.0	1	0.5	0.5
1599594437.8494046	1599594437.8494046	154.0	5.0	5	1.118033988749895	1.118033988749895
1599594438.273723	1599594438.273723	155.0	5.0	5	1.118033988749895	1.118033988749895
1599594438.6618683	1599594438.6618683	156.0	0.0	0	0	0.5
1599594439.058042	1599594439.058042	157.0	1.0	1	0.5	0.5
1599594439.45259	1599594439.45259	158.0	2.0	2	0.7071067811865476	0.7071067811865476
1599594439.8462336	1599594439.8462336	159.0	3.0	3	0.8660254037844386	0.8660254037844386
1599594440.2411568	1599594440.2411568	160.0	3.0	3	0.8660254037844386	0.8660254037844386
1599594440.6284027	1599594440.6284027	161.0	0.0	0	0	0.5
1599594441.017927	1599594441.017927	162.0	3.0	3	0.8660254037844386	0.8660254037844386
1599594441.4184256	1599594441.4184256	163.0	0.0	0	0	0.5
1599594441.808304	1599594441.808304	164.0	3.0	3	0.8660254037844386	0.8660254037844386
1599594442.204719	1599594442.204719	165.0	3.0	3	0.8660254037844386	0.8660254037844386
1599594442.5941906	1599594442.5941906	166.0	4.0	4	1.0	1.0
1599594442.9917376	1599594442.9917376	167.0	2.0	2	0.7071067811865476	0.7071067811865476
1599594443.3810883	1599594443.3810883	168.0	1.0	1	0.5	0.5
1599594443.7695608	1599594443.7695608	169.0	2.0	2	0.7071067811865476	0.7071067811865476
1599594444.173582	1599594444.173582	170.0	0.0	0	0	0.5
1599594444.5576057	1599594444.5576057	171.0	3.0	3	0.8660254037844386	0.8660254037844386
1599594444.9511437	1599594444.9511437	172.0	1.0	1	0.5	0.5
1599594445.3441653	1599594445.3441653	173.0	10.0	10	1.5811388300841898	1.5811388300841898
1599594445.7355666	1599594445.7355666	174.0	3.0	3	0.8660254037844386	0.8660254037844386
1599594446.1431966	1599594446.1431966	175.0	3.0	3	0.8660254037844386	0.8660254037844386
1599594446.5743103	1599594446.5743103	176.0	1.0	1	0.5	0.5
1599594447.0092	1599594447.0092	177.0	2.0	2	0.7071067811865476	0.7071067811865476
1599594447.4425619	1599594447.4425619	178.0	5.0	5	1.118033988749895	1.118033988749895
1599594447.873977	1599594447.873977	179.0	4.0	4	1.0	1.0
1599594448.3103275	1599594448.3103275	180.0	3.0	3	0.8660254037844386	0.8660254037844386
1599594448.7470286	1599594448.7470286	181.0	4.0	4	1.0	1.0
1599594449.177763	1599594449.177763	182.0	4.0	4	1.0	1.0
1599594449.6160395	1599594449.6160395	183.0	2.0	2	0.7071067811865476	0.7071067811865476
1599594450.0350294	1599594450.0350294	184.0	3.0	3	0.8660254037844386	0.8660254037844386
1599594450.467959	1599594450.467959	185.0	6.0	6	1.224744871391589	1.224744871391589
1599594450.9055746	1599594450.9055746	186.0	4.0	4	1.0	1.0
1599594451.336359	1599594451.336359	187.0	2.0	2	0.7071067811865476	0.7071067811865476
1599594451.772485	1599594451.772485	188.0	2.0	2	0.7071067811865476	0.7071067811865476
1599594452.1971657	1599594452.1971657	189.0	3.0	3	0.8660254037844386	0.8660254037844386
1599594452.628704	1599594452.628704	190.0	2.0	2	0.7071067811865476	0.7071067811865476
1599594453.1276631	1599594453.1276631	191.0	2.0	2	0.7071067811865476	0.7071067811865476
1599594453.4958453	1599594453.4958453	192.0	4.0	4	1.0	1.0
1599594453.9265082	1599594453.9265082	193.0	4.0	4	1.0	1.0
1599594454.3683498	1599594454.3683498	194.0	4.0	4	1.0	1.0
1599594454.816966	1599594454.816966	195.0	2.0	2	0.7071067811865476	0.7071067811865476
1599594455.29446	1599594455.29446	196.0	3.0	3	0.8660254037844386	0.8660254037844386
1599594455.7588854	1599594455.7588854	197.0	5.0	5	1.118033988749895	1.118033988749895
1599594456.2390897	1599594456.2390897	198.0	3.0	3	0.8660254037844386	0.8660254037844386
1599594456.7099333	1599594456.7099333	199.0	3.0	3	0.8660254037844386	0.8660254037844386
1599594457.1911407	1599594457.1911407	200.0	4.0	4	1.0	1.0
1599594457.6605883	1599594457.6605883	201.0	4.0	4	1.0	1.0
1599594458.1438193	1599594458.1438193	202.0	2.0	2	0.7071067811865476	0.7071067811865476
1599594458.6235068	1599594458.6235068	203.0	2.0	2	0.7071067811865476	0.7071067811865476
1599594459.1048267	1599594459.1048267	204.0	5.0	5	1.118033988749895	1.118033988749895
1599594459.5750854	1599594459.5750854	205.0	3.0	3	0.8660254037844386	0.8660254037844386
1599594460.0389879	1599594460.0389879	206.0	2.0	2	0.7071067811865476	0.7071067811865476
1599594460.5176845	1599594460.5176845	207.0	7.0	7	1.3228756555322954	1.3228756555322954
1599594460.991626	1599594460.991626	208.0	7.0	7	1.3228756555322954	1.3228756555322954
1599594461.4852533	1599594461.4852533	209.0	1.0	1	0.5	0.5
1599594461.94851	1599594461.94851	210.0	4.0	4	1.0	1.0
1599594462.4276292	1599594462.4276292	211.0	4.0	4	1.0	1.0
1599594462.904681	1599594462.904681	212.0	2.0	2	0.7071067811865476	0.7071067811865476
1599594463.389437	1599594463.389437	213.0	3.0	3	0.8660254037844386	0.8660254037844386
1599594463.8598976	1599594463.8598976	214.0	3.0	3	0.8660254037844386	0.8660254037844386
1599594464.3458197	1599594464.3458197	215.0	4.0	4	1.0	1.0
1599594464.882991	1599594464.882991	216.0	5.0	5	1.118033988749895	1.118033988749895
1599594465.4079168	1599594465.4079168	217.0	1.0	1	0.5	0.5
1599594465.9198275	1599594465.9198275	218.0	4.0	4	1.0	1.0
1599594466.4548082	1599594466.4548082	219.0	1.0	1	0.5	0.5
1599594466.96885	1599594466.96885	220.0	5.0	5	1.118033988749895	1.118033988749895
1599594467.591626	1599594467.591626	221.0	3.0	3	0.8660254037844386	0.8660254037844386
1599594468.0194337	1599594468.0194337	222.0	2.0	2	0.7071067811865476	0.7071067811865476
1599594468.5430715	1599594468.5430715	223.0	2.0	2	0.7071067811865476	0.7071067811865476
1599594469.0511386	1599594469.0511386	224.0	6.0	6	1.224744871391589	1.224744871391589
1599594469.5907257	1599594469.5907257	225.0	4.0	4	1.0	1.0
1599594470.1134436	1599594470.1134436	226.0	4.0	4	1.0	1.0
1599594470.624606	1599594470.624606	227.0	8.0	8	1.4142135623730951	1.4142135623730951
1599594471.1406608	1599594471.1406608	228.0	5.0	5	1.118033988749895	1.118033988749895
1599594471.6813052	1599594471.6813052	229.0	6.0	6	1.224744871391589	1.224744871391589
1599594472.1890907	1599594472.1890907	230.0	3.0	3	0.8660254037844386	0.8660254037844386
1599594472.7107978	1599594472.7107978	231.0	2.0	2	0.7071067811865476	0.7071067811865476
1599594473.235561	1599594473.235561	232.0	2.0	2	0.7071067811865476	0.7071067811865476
1599594473.7754076	1599594473.7754076	233.0	3.0	3	0.8660254037844386	0.8660254037844386
1599594474.2883236	1599594474.2883236	234.0	3.0	3	0.8660254037844386	0.8660254037844386
1599594474.833198	1599594474.833198	235.0	7.0	7	1.3228756555322954	1.3228756555322954
1599594475.400426	1599594475.400426	236.0	5.0	5	1.118033988749895	1.118033988749895
1599594475.9937067	1599594475.9937067	237.0	5.0	5	1.118033988749895	1.118033988749895
1599594476.574075	1599594476.574075	238.0	3.0	3	0.8660254037844386	0.8660254037844386
1599594477.1454108	1599594477.1454108	239.0	5.0	5	1.118033988749895	1.118033988749895
1599594477.724627	1599594477.724627	240.0	6.0	6	1.224744871391589	1.224744871391589
1599594478.2954698	1599594478.2954698	241.0	7.0	7	1.3228756555322954	1.3228756555322954
1599594478.8765345	1599594478.8765345	242.0	3.0	3	0.8660254037844386	0.8660254037844386
1599594479.4353504	1599594479.4353504	243.0	4.0	4	1.0	1.0
1599594480.0262322	1599594480.0262322	244.0	5.0	5	1.118033988749895	1.118033988749895
1599594480.5967152	1599594480.5967152	245.0	3.0	3	0.8660254037844386	0.8660254037844386
1599594481.1898313	1599594481.1898313	246.0	5.0	5	1.118033988749895	1.118033988749895
1599594481.732515	1599594481.732515	247.0	3.0	3	0.8660254037844386	0.8660254037844386
1599594482.3230531	1599594482.3230531	248.0	4.0	4	1.0	1.0
1599594482.8961682	1599594482.8961682	249.0	7.0	7	1.3228756555322954	1.3228756555322954
1599594483.4691615	1599594483.4691615	250.0	0.0	0	0	0.5
1599594484.0479066	1599594484.0479066	251.0	6.0	6	1.224744871391589	1.224744871391589
1599594484.6107476	1599594484.6107476	252.0	5.0	5	1.118033988749895	1.118033988749895
1599594485.197981	1599594485.197981	253.0	4.0	4	1.0	1.0
1599594485.7608805	1599594485.7608805	254.0	2.0	2	0.7071067811865476	0.7071067811865476
1599594486.3772411	1599594486.3772411	255.0	5.0	5	1.118033988749895	1.118033988749895
1599594487.0111372	1599594487.0111372	256.0	3.0	3	0.8660254037844386	0.8660254037844386
1599594487.6320875	1599594487.6320875	257.0	4.0	4	1.0	1.0
1599594488.2840405	1599594488.2840405	258.0	3.0	3	0.8660254037844386	0.8660254037844386
1599594488.9124792	1599594488.9124792	259.0	6.0	6	1.224744871391589	1.224744871391589
1599594489.5509217	1599594489.5509217	260.0	4.0	4	1.0	1.0
1599594490.1611333	1599594490.1611333	261.0	8.0	8	1.4142135623730951	1.4142135623730951
1599594490.8146572	1599594490.8146572	262.0	2.0	2	0.7071067811865476	0.7071067811865476
1599594491.4251027	1599594491.4251027	263.0	0.0	0	0	0.5
1599594492.0740898	1599594492.0740898	264.0	1.0	1	0.5	0.5
1599594492.704737	1599594492.704737	265.0	6.0	6	1.224744871391589	1.224744871391589
1599594493.33863	1599594493.33863	266.0	1.0	1	0.5	0.5
1599594493.9743018	1599594493.9743018	267.0	0.0	0	0	0.5
1599594494.5901208	1599594494.5901208	268.0	3.0	3	0.8660254037844386	0.8660254037844386
1599594495.2386975	1599594495.2386975	269.0	5.0	5	1.118033988749895	1.118033988749895
1599594495.879775	1599594495.879775	270.0	5.0	5	1.118033988749895	1.118033988749895
1599594496.5056205	1599594496.5056205	271.0	6.0	6	1.224744871391589	1.224744871391589
1599594497.1379118	1599594497.1379118	272.0	2.0	2	0.7071067811865476	0.7071067811865476
1599594497.7722185	1599594497.7722185	273.0	5.0	5	1.118033988749895	1.118033988749895
1599594498.4071102	1599594498.4071102	274.0	0.0	0	0	0.5
1599594499.030491	1599594499.030491	275.0	5.0	5	1.118033988749895	1.118033988749895
1599594499.591133	1599594499.591133	276.0	1.0	1	0.5	0.5
1599594500.1333678	1599594500.1333678	277.0	6.0	6	1.224744871391589	1.224744871391589
1599594500.7236876	1599594500.7236876	278.0	3.0	3	0.8660254037844386	0.8660254037844386
1599594501.282456	1599594501.282456	279.0	2.0	2	0.7071067811865476	0.7071067811865476
1599594502.071669	1599594502.071669	280.0	3.0	3	0.8660254037844386	0.8660254037844386
1599594502.8487167	1599594502.8487167	281.0	5.0	5	1.118033988749895	1.118033988749895
1599594503.3955274	1599594503.3955274	282.0	2.0	2	0.7071067811865476	0.7071067811865476
1599594503.9152772	1599594503.9152772	283.0	3.0	3	0.8660254037844386	0.8660254037844386
1599594504.476486	1599594504.476486	284.0	1.0	1	0.5	0.5
1599594505.0198214	1599594505.0198214	285.0	2.0	2	0.7071067811865476	0.7071067811865476
1599594505.5756044	1599594505.5756044	286.0	3.0	3	0.8660254037844386	0.8660254037844386
1599594505.9404848	1599594505.9404848	287.0	1.0	1	0.5	0.5
1599594506.426111	1599594506.426111	288.0	3.0	3	0.8660254037844386	0.8660254037844386
1599594506.9816675	1599594506.9816675	289.0	7.0	7	1.3228756555322954	1.3228756555322954
1599594507.5602784	1599594507.5602784	290.0	4.0	4	1.0	1.0
1599594508.110927	1599594508.110927	291.0	3.0	3	0.8660254037844386	0.8660254037844386
1599594508.6908596	1599594508.6908596	292.0	1.0	1	0.5	0.5
1599594509.259945	1599594509.259945	293.0	0.0	0	0	0.5
1599594509.8334134	1599594509.8334134	294.0	2.0	2	0.7071067811865476	0.7071067811865476
1599594510.382683	1599594510.382683	295.0	5.0	5	1.118033988749895	1.118033988749895
1599594510.8895307	1599594510.8895307	296.0	2.0	2	0.7071067811865476	0.7071067811865476
1599594511.4021893	1599594511.4021893	297.0	4.0	4	1.0	1.0
1599594511.9103858	1599594511.9103858	298.0	2.0	2	0.7071067811865476	0.7071067811865476
1599594512.4191961	1599594512.4191961	299.0	6.0	6	1.224744871391589	1.224744871391589
1599594512.9411743	1599594512.9411743	300.0	1.0	1	0.5	0.5
1599594513.4521325	1599594513.4521325	301.0	5.0	5	1.118033988749895	1.118033988749895
1599594513.973665	1599594513.973665	302.0	1.0	1	0.5	0.5
1599594514.473894	1599594514.473894	303.0	4.0	4	1.0	1.0
1599594514.9878771	1599594514.9878771	304.0	4.0	4	1.0	1.0
1599594515.5080547	1599594515.5080547	305.0	7.0	7	1.3228756555322954	1.3228756555322954
1599594516.055865	1599594516.055865	306.0	3.0	3	0.8660254037844386	0.8660254037844386
1599594516.5394967	1599594516.5394967	307.0	0.0	0	0	0.5
1599594517.0414312	1599594517.0414312	308.0	5.0	5	1.118033988749895	1.118033988749895
1599594517.5604353	1599594517.5604353	309.0	5.0	5	1.118033988749895	1.118033988749895
1599594518.076132	1599594518.076132	310.0	2.0	2	0.7071067811865476	0.7071067811865476
1599594518.576741	1599594518.576741	311.0	4.0	4	1.0	1.0
1599594519.1029716	1599594519.1029716	312.0	3.0	3	0.8660254037844386	0.8660254037844386
1599594519.6046236	1599594519.6046236	313.0	4.0	4	1.0	1.0
1599594520.1476262	1599594520.1476262	314.0	2.0	2	0.7071067811865476	0.7071067811865476
1599594520.6130161	1599594520.6130161	315.0	2.0	2	0.7071067811865476	0.7071067811865476
1599594521.0731316	1599594521.0731316	316.0	4.0	4	1.0	1.0
1599594521.5296245	1599594521.5296245	317.0	5.0	5	1.118033988749895	1.118033988749895
1599594521.9898584	1599594521.9898584	318.0	4.0	4	1.0	1.0
1599594522.4494689	1599594522.4494689	319.0	1.0	1	0.5	0.5
1599594522.916347	1599594522.916347	320.0	3.0	3	0.8660254037844386	0.8660254037844386
1599594523.3695402	1599594523.3695402	321.0	2.0	2	0.7071067811865476	0.7071067811865476
1599594523.841471	1599594523.841471	322.0	3.0	3	0.8660254037844386	0.8660254037844386
1599594524.2935	1599594524.2935	323.0	1.0	1	0.5	0.5
1599594524.763841	1599594524.763841	324.0	4.0	4	1.0	1.0
1599594525.2259026	1599594525.2259026	325.0	3.0	3	0.8660254037844386	0.8660254037844386
1599594525.685907	1599594525.685907	326.0	4.0	4	1.0	1.0
1599594526.1401377	1599594526.1401377	327.0	1.0	1	0.5	0.5
1599594526.6119032	1599594526.6119032	328.0	3.0	3	0.8660254037844386	0.8660254037844386
1599594527.0655928	1599594527.0655928	329.0	4.0	4	1.0	1.0
1599594527.5282612	1599594527.5282612	330.0	4.0	4	1.0	1.0
1599594527.9856687	1599594527.9856687	331.0	3.0	3	0.8660254037844386	0.8660254037844386
1599594528.4555995	1599594528.4555995	332.0	2.0	2	0.7071067811865476	0.7071067811865476
1599594528.9075797	1599594528.9075797	333.0	4.0	4	1.0	1.0
1599594529.372204	1599594529.372204	334.0	4.0	4	1.0	1.0
1599594529.811213	1599594529.811213	335.0	2.0	2	0.7071067811865476	0.7071067811865476
1599594530.2337027	1599594530.2337027	336.0	6.0	6	1.224744871391589	1.224744871391589
1599594530.6473916	1599594530.6473916	337.0	3.0	3	0.8660254037844386	0.8660254037844386
1599594531.0677044	1599594531.0677044	338.0	4.0	4	1.0	1.0
1599594531.4831452	1599594531.4831452	339.0	3.0	3	0.8660254037844386	0.8660254037844386
1599594531.8991365	1599594531.8991365	340.0	4.0	4	1.0	1.0
1599594532.3055108	1599594532.3055108	341.0	3.0	3	0.8660254037844386	0.8660254037844386
1599594532.7234733	1599594532.7234733	342.0	2.0	2	0.7071067811865476	0.7071067811865476
1599594533.1403184	1599594533.1403184	343.0	7.0	7	1.3228756555322954	1.3228756555322954
1599594533.6273477	1599594533.6273477	344.0	5.0	5	1.118033988749895	1.118033988749895
1599594533.9644952	1599594533.9644952	345.0	2.0	2	0.7071067811865476	0.7071067811865476
1599594534.386389	1599594534.386389	346.0	4.0	4	1.0	1.0
1599594534.8058136	1599594534.8058136	347.0	3.0	3	0.8660254037844386	0.8660254037844386
1599594535.216792	1599594535.216792	348.0	2.0	2	0.7071067811865476	0.7071067811865476
1599594535.6263285	1599594535.6263285	349.0	1.0	1	0.5	0.5
1599594536.0486467	1599594536.0486467	350.0	4.0	4	1.0	1.0
1599594536.4645514	1599594536.4645514	351.0	2.0	2	0.7071067811865476	0.7071067811865476
1599594536.8728454	1599594536.8728454	352.0	6.0	6	1.224744871391589	1.224744871391589
1599594537.2958083	1599594537.2958083	353.0	0.0	0	0	0.5
1599594537.7075543	1599594537.7075543	354.0	1.0	1	0.5	0.5
1599594538.1078248	1599594538.1078248	355.0	3.0	3	0.8660254037844386	0.8660254037844386
1599594538.4790137	1599594538.4790137	356.0	0.0	0	0	0.5
1599594538.8471978	1599594538.8471978	357.0	3.0	3	0.8660254037844386	0.8660254037844386
1599594539.2266114	1599594539.2266114	358.0	4.0	4	1.0	1.0
1599594539.596336	1599594539.596336	359.0	3.0	3	0.8660254037844386	0.8660254037844386
1599594539.972526	1599594539.972526	360.0	3.0	3	0.8660254037844386	0.8660254037844386
1599594540.352323	1599594540.352323	361.0	6.0	6	1.224744871391589	1.224744871391589
1599594540.7228613	1599594540.7228613	362.0	0.0	0	0	0.5
1599594541.0991626	1599594541.0991626	363.0	6.0	6	1.224744871391589	1.224744871391589
1599594541.4792738	1599594541.4792738	364.0	5.0	5	1.118033988749895	1.118033988749895
1599594541.8476453	1599594541.8476453	365.0	4.0	4	1.0	1.0
1599594542.2173173	1599594542.2173173	366.0	4.0	4	1.0	1.0
1599594542.5957012	1599594542.5957012	367.0	4.0	4	1.0	1.0
1599594542.9658182	1599594542.9658182	368.0	3.0	3	0.8660254037844386	0.8660254037844386
1599594543.3414578	1599594543.3414578	369.0	2.0	2	0.7071067811865476	0.7071067811865476
1599594543.7174444	1599594543.7174444	370.0	4.0	4	1.0	1.0
1599594544.089925	1599594544.089925	371.0	1.0	1	0.5	0.5
1599594544.4634082	1599594544.4634082	372.0	0.0	0	0	0.5
1599594544.8458006	1599594544.8458006	373.0	5.0	5	1.118033988749895	1.118033988749895
1599594545.208124	1599594545.208124	374.0	5.0	5	1.118033988749895	1.118033988749895
1599594545.595365	1599594545.595365	375.0	4.0	4	1.0	1.0
1599594546.0094354	1599594546.0094354	376.0	3.0	3	0.8660254037844386	0.8660254037844386
1599594546.41515	1599594546.41515	377.0	4.0	4	1.0	1.0
1599594546.827252	1599594546.827252	378.0	3.0	3	0.8660254037844386	0.8660254037844386
1599594547.2480686	1599594547.2480686	379.0	8.0	8	1.4142135623730951	1.4142135623730951
1599594547.6491458	1599594547.6491458	380.0	3.0	3	0.8660254037844386	0.8660254037844386
1599594548.0660708	1599594548.0660708	381.0	1.0	1	0.5	0.5
1599594548.4719224	1599594548.4719224	382.0	5.0	5	1.118033988749895	1.118033988749895
1599594548.8893461	1599594548.8893461	383.0	2.0	2	0.7071067811865476	0.7071067811865476
1599594549.3015034	1599594549.3015034	384.0	4.0	4	1.0	1.0
1599594549.7099743	1599594549.7099743	385.0	4.0	4	1.0	1.0
1599594550.1185496	1599594550.1185496	386.0	2.0	2	0.7071067811865476	0.7071067811865476
1599594550.5360172	1599594550.5360172	387.0	2.0	2	0.7071067811865476	0.7071067811865476
1599594550.941801	1599594550.941801	388.0	2.0	2	0.7071067811865476	0.7071067811865476
1599594551.3624196	1599594551.3624196	389.0	1.0	1	0.5	0.5
1599594551.848089	1599594551.848089	390.0	3.0	3	0.8660254037844386	0.8660254037844386
1599594552.174195	1599594552.174195	391.0	2.0	2	0.7071067811865476	0.7071067811865476
1599594552.5853631	1599594552.5853631	392.0	5.0	5	1.118033988749895	1.118033988749895
1599594553.0004036	1599594553.0004036	393.0	4.0	4	1.0	1.0
1599594553.408433	1599594553.408433	394.0	2.0	2	0.7071067811865476	0.7071067811865476
1599594553.8395357	1599594553.8395357	395.0	4.0	4	1.0	1.0
1599594554.2912495	1599594554.2912495	396.0	5.0	5	1.118033988749895	1.118033988749895
1599594554.743985	1599594554.743985	397.0	3.0	3	0.8660254037844386	0.8660254037844386
1599594555.2066634	1599594555.2066634	398.0	6.0	6	1.224744871391589	1.224744871391589
1599594555.6485715	1599594555.6485715	399.0	4.0	4	1.0	1.0
1599594556.1057067	1599594556.1057067	400.0	3.0	3	0.8660254037844386	0.8660254037844386
1599594556.5549884	1599594556.5549884	401.0	4.0	4	1.0	1.0
1599594557.0026739	1599594557.0026739	402.0	1.0	1	0.5	0.5
1599594557.4622643	1599594557.4622643	403.0	2.0	2	0.7071067811865476	0.7071067811865476
1599594557.9118242	1599594557.9118242	404.0	1.0	1	0.5	0.5
1599594558.3735127	1599594558.3735127	405.0	4.0	4	1.0	1.0
1599594558.8159173	1599594558.8159173	406.0	2.0	2	0.7071067811865476	0.7071067811865476
1599594559.2699244	1599594559.2699244	407.0	6.0	6	1.224744871391589	1.224744871391589
1599594559.7162838	1599594559.7162838	408.0	3.0	3	0.8660254037844386	0.8660254037844386
1599594560.169364	1599594560.169364	409.0	2.0	2	0.7071067811865476	0.7071067811865476
1599594560.622321	1599594560.622321	410.0	5.0	5	1.118033988749895	1.118033988749895
1599594561.0734203	1599594561.0734203	411.0	7.0	7	1.3228756555322954	1.3228756555322954
1599594561.5287337	1599594561.5287337	412.0	4.0	4	1.0	1.0
1599594561.9796677	1599594561.9796677	413.0	2.0	2	0.7071067811865476	0.7071067811865476
1599594562.4358463	1599594562.4358463	414.0	3.0	3	0.8660254037844386	0.8660254037844386
1599594562.90298	1599594562.90298	415.0	3.0	3	0.8660254037844386	0.8660254037844386
1599594563.4072278	1599594563.4072278	416.0	7.0	7	1.3228756555322954	1.3228756555322954
1599594563.8974018	1599594563.8974018	417.0	2.0	2	0.7071067811865476	0.7071067811865476
1599594564.4051073	1599594564.4051073	418.0	4.0	4	1.0	1.0
1599594564.8920972	1599594564.8920972	419.0	3.0	3	0.8660254037844386	0.8660254037844386
1599594565.452795	1599594565.452795	420.0	3.0	3	0.8660254037844386	0.8660254037844386
1599594565.8888488	1599594565.8888488	421.0	3.0	3	0.8660254037844386	0.8660254037844386
1599594566.397612	1599594566.397612	422.0	5.0	5	1.118033988749895	1.118033988749895
1599594566.887185	1599594566.887185	423.0	0.0	0	0	0.5
1599594567.3933125	1599594567.3933125	424.0	6.0	6	1.224744871391589	1.224744871391589
1599594567.8808722	1599594567.8808722	425.0	3.0	3	0.8660254037844386	0.8660254037844386
1599594568.3863542	1599594568.3863542	426.0	5.0	5	1.118033988749895	1.118033988749895
1599594568.8820252	1599594568.8820252	427.0	3.0	3	0.8660254037844386	0.8660254037844386
1599594569.3769348	1599594569.3769348	428.0	2.0	2	0.7071067811865476	0.7071067811865476
1599594569.87035	1599594569.87035	429.0	3.0	3	0.8660254037844386	0.8660254037844386
1599594570.3664618	1599594570.3664618	430.0	4.0	4	1.0	1.0
1599594570.8650193	1599594570.8650193	431.0	0.0	0	0	0.5
1599594571.3692684	1599594571.3692684	432.0	5.0	5	1.118033988749895	1.118033988749895
1599594571.861612	1599594571.861612	433.0	2.0	2	0.7071067811865476	0.7071067811865476
1599594572.357184	1599594572.357184	434.0	5.0	5	1.118033988749895	1.118033988749895
1599594572.8774824	1599594572.8774824	435.0	2.0	2	0.7071067811865476	0.7071067811865476
1599594573.4348745	1599594573.4348745	436.0	3.0	3	0.8660254037844386	0.8660254037844386
1599594573.9740534	1599594573.9740534	437.0	2.0	2	0.7071067811865476	0.7071067811865476
1599594574.517677	1599594574.517677	438.0	3.0	3	0.8660254037844386	0.8660254037844386
1599594575.0715094	1599594575.0715094	439.0	5.0	5	1.118033988749895	1.118033988749895
1599594575.620904	1599594575.620904	440.0	4.0	4	1.0	1.0
1599594576.170107	1599594576.170107	441.0	1.0	1	0.5	0.5
1599594576.7220702	1599594576.7220702	442.0	4.0	4	1.0	1.0
1599594577.2694924	1599594577.2694924	443.0	1.0	1	0.5	0.5
1599594577.8124912	1599594577.8124912	444.0	3.0	3	0.8660254037844386	0.8660254037844386
1599594578.3611934	1599594578.3611934	445.0	6.0	6	1.224744871391589	1.224744871391589
1599594578.9001243	1599594578.9001243	446.0	3.0	3	0.8660254037844386	0.8660254037844386
1599594579.4531858	1599594579.4531858	447.0	1.0	1	0.5	0.5
1599594579.9930139	1599594579.9930139	448.0	1.0	1	0.5	0.5
1599594580.550651	1599594580.550651	449.0	1.0	1	0.5	0.5
1599594581.1011152	1599594581.1011152	450.0	3.0	3	0.8660254037844386	0.8660254037844386