# <?xml version="1.0" ?>
# <DataFileHeader>
#   <Variables>
#     <Element name="PulseProgram" type="dict">
#       <Element name="PulseProgram" type="str">C:/Users/ions/Documents/IonControl/project_dir/QuditLab/config/PulseProgramsPlus/Ablation_NeutralFluorescence.ppp</Element>
#       <Element name="NULL" type="Quantity">0</Element>
#       <Element name="FFFFFFFF" type="Quantity">18446744073709551615</Element>
#       <Element name="INTERRUPT_EXITCODE" type="Quantity">18446198715942174720</Element>
#       <Element name="InitializationShutter" type="int">4632</Element>
#       <Element name="NaturalAblation_mask" type="int">256</Element>
#       <Element name="NaturalAblation" type="int">256</Element>
#       <Element name="EndShutter" type="int">4632</Element>
#       <Element name="ShutterDelayTime" type="Quantity">0.5 s</Element>
#       <Element name="WindowStartTime" type="Quantity">141 us</Element>
#       <Element name="DetectTime" type="Quantity">20 us</Element>
#       <Element name="DummyVar" type="int">0</Element>
#       <Element name="experiments" type="int">1</Element>
#       <Element name="DetectCounters" type="int">1</Element>
#       <Element name="endLabel" type="Quantity">18446744073709551615</Element>
#       <Element name="experimentsleft" type="Quantity">100</Element>
#       <Element name="currentexperiment" type="Quantity">0</Element>
#       <Element name="inlinevar_1" type="Quantity">1</Element>
#     </Element>
#     <Element name="Scan" type="dict">
#       <Element name="scanParameter" type="str">DummyVar</Element>
#       <Element name="scanTarget" type="str">Internal</Element>
#       <Element name="scantype" type="int">0</Element>
#       <Element name="scanMode" type="int">0</Element>
#       <Element name="xUnit" type="str"></Element>
#       <Element name="xExpression" type="str"></Element>
#       <Element name="loadPP" type="bool">True</Element>
#       <Element name="loadPPName" type="str">Ablation_IonFluorescence_Nat.ppp</Element>
#       <Element name="parallelInternalScanParameter" type="str">None</Element>
#     </Element>
#     <ColumnSpec>timeTickFirst, timeTickLast, x, PMT Count, PMT Count_raw, PMT Count_bottom, PMT Count_top</ColumnSpec>
#     <Element name="comment" type="str"></Element>
#     <Element name="lastDataAquired" type="datetime">2020-09-10 19:50:13.643904+00:00</Element>
#     <Element name="name" type="str"></Element>
#     <Element name="traceCreation" type="datetime">2020-09-10 19:48:13.894006+00:00</Element>
#     <Element name="traceFinalized" type="datetime">2020-09-10 19:50:13.646782+00:00</Element>
#     <TracePlottingList>
#       <TracePlotting _bottomColumn="PMT Count_bottom" _filtColumn="None" _fitFunction="None" _heightColumn="height" _rawColumn="PMT Count_raw" _topColumn="PMT Count_top" _xColumn="x" _yColumn="PMT Count" fill="True" name="PMT Count" properties="&lt;trace.PlottedTrace.PlottedTraceProperties object at 0x000002A987E56630&gt;" style="0" type="0" windowName="Scan Data" xAxisLabel="DummyVar" xAxisUnit="" yAxisLabel="None">
#         <PlottedTraceProperties averageSameX="False" averageType="0" combinePoints="0"/>
#       </TracePlotting>
#     </TracePlottingList>
#   </Variables>
# </DataFileHeader>
1599767293.0691435	1599767293.0691435	1.0	6.0	6	1.224744871391589	1.224744871391589
1599767293.889063	1599767293.889063	2.0	0.0	0	0	0.5
1599767294.3028753	1599767294.3028753	3.0	7.0	7	1.3228756555322954	1.3228756555322954
1599767294.6378684	1599767294.6378684	4.0	12.0	12	1.7320508075688772	1.7320508075688772
1599767295.0068517	1599767295.0068517	5.0	5.0	5	1.118033988749895	1.118033988749895
1599767295.4295962	1599767295.4295962	6.0	6.0	6	1.224744871391589	1.224744871391589
1599767295.778705	1599767295.778705	7.0	7.0	7	1.3228756555322954	1.3228756555322954
1599767296.1690297	1599767296.1690297	8.0	11.0	11	1.6583123951777	1.6583123951777
1599767296.5524325	1599767296.5524325	9.0	3.0	3	0.8660254037844386	0.8660254037844386
1599767296.983802	1599767296.983802	10.0	15.0	15	1.9364916731037085	1.9364916731037085
1599767297.3585756	1599767297.3585756	11.0	14.0	14	1.8708286933869707	1.8708286933869707
1599767297.7526925	1599767297.7526925	12.0	12.0	12	1.7320508075688772	1.7320508075688772
1599767298.089926	1599767298.089926	13.0	4.0	4	1.0	1.0
1599767298.4753127	1599767298.4753127	14.0	0.0	0	0	0.5
1599767298.8582988	1599767298.8582988	15.0	1.0	1	0.5	0.5
1599767299.2925909	1599767299.2925909	16.0	1.0	1	0.5	0.5
1599767299.6347845	1599767299.6347845	17.0	1.0	1	0.5	0.5
1599767300.0151894	1599767300.0151894	18.0	0.0	0	0	0.5
1599767300.3633785	1599767300.3633785	19.0	0.0	0	0	0.5
1599767300.7451775	1599767300.7451775	20.0	0.0	0	0	0.5
1599767301.0886562	1599767301.0886562	21.0	0.0	0	0	0.5
1599767301.4105968	1599767301.4105968	22.0	0.0	0	0	0.5
1599767301.7559824	1599767301.7559824	23.0	0.0	0	0	0.5
1599767302.1372967	1599767302.1372967	24.0	1.0	1	0.5	0.5
1599767302.439332	1599767302.439332	25.0	2.0	2	0.7071067811865476	0.7071067811865476
1599767302.802632	1599767302.802632	26.0	1.0	1	0.5	0.5
1599767303.1649995	1599767303.1649995	27.0	2.0	2	0.7071067811865476	0.7071067811865476
1599767303.4855857	1599767303.4855857	28.0	0.0	0	0	0.5
1599767303.861633	1599767303.861633	29.0	0.0	0	0	0.5
1599767304.2150912	1599767304.2150912	30.0	0.0	0	0	0.5
1599767304.5233438	1599767304.5233438	31.0	0.0	0	0	0.5
1599767304.901874	1599767304.901874	32.0	1.0	1	0.5	0.5
1599767305.21784	1599767305.21784	33.0	0.0	0	0	0.5
1599767305.5947597	1599767305.5947597	34.0	1.0	1	0.5	0.5
1599767305.907267	1599767305.907267	35.0	3.0	3	0.8660254037844386	0.8660254037844386
1599767306.2555928	1599767306.2555928	36.0	0.0	0	0	0.5
1599767306.6085587	1599767306.6085587	37.0	3.0	3	0.8660254037844386	0.8660254037844386
1599767306.99255	1599767306.99255	38.0	2.0	2	0.7071067811865476	0.7071067811865476
1599767307.3354356	1599767307.3354356	39.0	0.0	0	0	0.5
1599767307.7248666	1599767307.7248666	40.0	3.0	3	0.8660254037844386	0.8660254037844386
1599767308.1091256	1599767308.1091256	41.0	4.0	4	1.0	1.0
1599767308.4767032	1599767308.4767032	42.0	3.0	3	0.8660254037844386	0.8660254037844386
1599767308.8921869	1599767308.8921869	43.0	3.0	3	0.8660254037844386	0.8660254037844386
1599767309.2391148	1599767309.2391148	44.0	1.0	1	0.5	0.5
1599767309.653063	1599767309.653063	45.0	1.0	1	0.5	0.5
1599767310.0343578	1599767310.0343578	46.0	5.0	5	1.118033988749895	1.118033988749895
1599767310.380801	1599767310.380801	47.0	2.0	2	0.7071067811865476	0.7071067811865476
1599767310.7633815	1599767310.7633815	48.0	4.0	4	1.0	1.0
1599767311.177255	1599767311.177255	49.0	2.0	2	0.7071067811865476	0.7071067811865476
1599767311.5549343	1599767311.5549343	50.0	0.0	0	0	0.5
1599767311.9413168	1599767311.9413168	51.0	1.0	1	0.5	0.5
1599767312.2971797	1599767312.2971797	52.0	1.0	1	0.5	0.5
1599767312.6697288	1599767312.6697288	53.0	0.0	0	0	0.5
1599767313.055256	1599767313.055256	54.0	1.0	1	0.5	0.5
1599767313.4681828	1599767313.4681828	55.0	0.0	0	0	0.5
1599767313.8569643	1599767313.8569643	56.0	0.0	0	0	0.5
1599767314.2616556	1599767314.2616556	57.0	0.0	0	0	0.5
1599767314.5982995	1599767314.5982995	58.0	0.0	0	0	0.5
1599767314.9973962	1599767314.9973962	59.0	2.0	2	0.7071067811865476	0.7071067811865476
1599767315.446149	1599767315.446149	60.0	0.0	0	0	0.5
1599767315.8691432	1599767315.8691432	61.0	0.0	0	0	0.5
1599767316.2814653	1599767316.2814653	62.0	1.0	1	0.5	0.5
1599767316.9045365	1599767316.9045365	63.0	1.0	1	0.5	0.5
1599767317.1165266	1599767317.1165266	64.0	0.0	0	0	0.5
1599767317.5451584	1599767317.5451584	65.0	0.0	0	0	0.5
1599767317.9433675	1599767317.9433675	66.0	1.0	1	0.5	0.5
1599767318.354339	1599767318.354339	67.0	0.0	0	0	0.5
1599767318.784885	1599767318.784885	68.0	0.0	0	0	0.5
1599767319.2304354	1599767319.2304354	69.0	0.0	0	0	0.5
1599767319.6204839	1599767319.6204839	70.0	0.0	0	0	0.5
1599767320.0647483	1599767320.0647483	71.0	1.0	1	0.5	0.5
1599767320.466434	1599767320.466434	72.0	0.0	0	0	0.5
1599767320.9062448	1599767320.9062448	73.0	0.0	0	0	0.5
1599767321.3344343	1599767321.3344343	74.0	1.0	1	0.5	0.5
1599767321.7473657	1599767321.7473657	75.0	0.0	0	0	0.5
1599767322.1328754	1599767322.1328754	76.0	0.0	0	0	0.5
1599767322.5856652	1599767322.5856652	77.0	0.0	0	0	0.5
1599767322.9856431	1599767322.9856431	78.0	0.0	0	0	0.5
1599767323.4687586	1599767323.4687586	79.0	3.0	3	0.8660254037844386	0.8660254037844386
1599767323.9477036	1599767323.9477036	80.0	0.0	0	0	0.5
1599767324.4015944	1599767324.4015944	81.0	0.0	0	0	0.5
1599767324.8176897	1599767324.8176897	82.0	0.0	0	0	0.5
1599767325.3149335	1599767325.3149335	83.0	1.0	1	0.5	0.5
1599767325.7482564	1599767325.7482564	84.0	0.0	0	0	0.5
1599767326.2347121	1599767326.2347121	85.0	3.0	3	0.8660254037844386	0.8660254037844386
1599767326.710231	1599767326.710231	86.0	0.0	0	0	0.5
1599767327.1611607	1599767327.1611607	87.0	2.0	2	0.7071067811865476	0.7071067811865476
1599767327.6674504	1599767327.6674504	88.0	0.0	0	0	0.5
1599767328.0826406	1599767328.0826406	89.0	1.0	1	0.5	0.5
1599767328.5095146	1599767328.5095146	90.0	2.0	2	0.7071067811865476	0.7071067811865476
1599767329.0056703	1599767329.0056703	91.0	4.0	4	1.0	1.0
1599767329.549611	1599767329.549611	92.0	4.0	4	1.0	1.0
1599767329.9273365	1599767329.9273365	93.0	0.0	0	0	0.5
1599767330.3627312	1599767330.3627312	94.0	2.0	2	0.7071067811865476	0.7071067811865476
1599767330.8532615	1599767330.8532615	95.0	6.0	6	1.224744871391589	1.224744871391589
1599767331.2751057	1599767331.2751057	96.0	2.0	2	0.7071067811865476	0.7071067811865476
1599767331.7829788	1599767331.7829788	97.0	6.0	6	1.224744871391589	1.224744871391589
1599767332.2557855	1599767332.2557855	98.0	2.0	2	0.7071067811865476	0.7071067811865476
1599767332.7512722	1599767332.7512722	99.0	4.0	4	1.0	1.0
1599767333.278283	1599767333.278283	100.0	0.0	0	0	0.5
1599767333.7589967	1599767333.7589967	101.0	0.0	0	0	0.5
1599767334.2909453	1599767334.2909453	102.0	0.0	0	0	0.5
1599767334.773802	1599767334.773802	103.0	1.0	1	0.5	0.5
1599767335.3046975	1599767335.3046975	104.0	1.0	1	0.5	0.5
1599767335.7884989	1599767335.7884989	105.0	0.0	0	0	0.5
1599767336.3023942	1599767336.3023942	106.0	0.0	0	0	0.5
1599767336.8164105	1599767336.8164105	107.0	0.0	0	0	0.5
1599767337.3409164	1599767337.3409164	108.0	1.0	1	0.5	0.5
1599767337.8362136	1599767337.8362136	109.0	2.0	2	0.7071067811865476	0.7071067811865476
1599767338.351673	1599767338.351673	110.0	2.0	2	0.7071067811865476	0.7071067811865476
1599767339.1443894	1599767339.1443894	111.0	0.0	0	0	0.5
1599767339.3464308	1599767339.3464308	112.0	4.0	4	1.0	1.0
1599767339.8524106	1599767339.8524106	113.0	1.0	1	0.5	0.5
1599767340.3677952	1599767340.3677952	114.0	0.0	0	0	0.5
1599767340.8852463	1599767340.8852463	115.0	1.0	1	0.5	0.5
1599767341.4135945	1599767341.4135945	116.0	1.0	1	0.5	0.5
1599767341.901429	1599767341.901429	117.0	1.0	1	0.5	0.5
1599767342.4173713	1599767342.4173713	118.0	4.0	4	1.0	1.0
1599767342.9678214	1599767342.9678214	119.0	0.0	0	0	0.5
1599767343.5537546	1599767343.5537546	120.0	4.0	4	1.0	1.0
1599767344.087109	1599767344.087109	121.0	4.0	4	1.0	1.0
1599767344.6540568	1599767344.6540568	122.0	1.0	1	0.5	0.5
1599767345.2249758	1599767345.2249758	123.0	4.0	4	1.0	1.0
1599767345.702347	1599767345.702347	124.0	4.0	4	1.0	1.0
1599767346.33336	1599767346.33336	125.0	7.0	7	1.3228756555322954	1.3228756555322954
1599767347.442675	1599767347.442675	126.0	14.0	14	1.8708286933869707	1.8708286933869707
1599767347.7159836	1599767347.7159836	127.0	12.0	12	1.7320508075688772	1.7320508075688772
1599767348.0873008	1599767348.0873008	128.0	12.0	12	1.7320508075688772	1.7320508075688772
1599767348.8069968	1599767348.8069968	129.0	11.0	11	1.6583123951777	1.6583123951777
1599767349.1679149	1599767349.1679149	130.0	10.0	10	1.5811388300841898	1.5811388300841898
1599767349.6804607	1599767349.6804607	131.0	11.0	11	1.6583123951777	1.6583123951777
1599767350.2558541	1599767350.2558541	132.0	10.0	10	1.5811388300841898	1.5811388300841898
1599767350.8035378	1599767350.8035378	133.0	12.0	12	1.7320508075688772	1.7320508075688772
1599767351.304046	1599767351.304046	134.0	11.0	11	1.6583123951777	1.6583123951777
1599767351.910461	1599767351.910461	135.0	16.0	16	2.0	2.0
1599767352.4916363	1599767352.4916363	136.0	10.0	10	1.5811388300841898	1.5811388300841898
1599767353.0241315	1599767353.0241315	137.0	3.0	3	0.8660254037844386	0.8660254037844386
1599767353.6140733	1599767353.6140733	138.0	2.0	2	0.7071067811865476	0.7071067811865476
1599767354.1963725	1599767354.1963725	139.0	5.0	5	1.118033988749895	1.118033988749895
1599767354.840754	1599767354.840754	140.0	1.0	1	0.5	0.5
1599767355.4315853	1599767355.4315853	141.0	3.0	3	0.8660254037844386	0.8660254037844386
1599767356.1485612	1599767356.1485612	142.0	2.0	2	0.7071067811865476	0.7071067811865476
1599767356.674959	1599767356.674959	143.0	1.0	1	0.5	0.5
1599767357.283458	1599767357.283458	144.0	2.0	2	0.7071067811865476	0.7071067811865476
1599767357.8790393	1599767357.8790393	145.0	1.0	1	0.5	0.5
1599767358.5703692	1599767358.5703692	146.0	0.0	0	0	0.5
1599767359.1071699	1599767359.1071699	147.0	2.0	2	0.7071067811865476	0.7071067811865476
1599767359.7654548	1599767359.7654548	148.0	0.0	0	0	0.5
1599767360.3416576	1599767360.3416576	149.0	1.0	1	0.5	0.5
1599767360.8925004	1599767360.8925004	150.0	2.0	2	0.7071067811865476	0.7071067811865476
1599767361.5671883	1599767361.5671883	151.0	1.0	1	0.5	0.5
1599767362.1977468	1599767362.1977468	152.0	1.0	1	0.5	0.5
1599767362.795587	1599767362.795587	153.0	2.0	2	0.7071067811865476	0.7071067811865476
1599767363.4536467	1599767363.4536467	154.0	0.0	0	0	0.5
1599767364.0182643	1599767364.0182643	155.0	0.0	0	0	0.5
1599767364.6561906	1599767364.6561906	156.0	2.0	2	0.7071067811865476	0.7071067811865476
1599767365.2580538	1599767365.2580538	157.0	2.0	2	0.7071067811865476	0.7071067811865476
1599767365.9009185	1599767365.9009185	158.0	3.0	3	0.8660254037844386	0.8660254037844386
1599767366.5308821	1599767366.5308821	159.0	1.0	1	0.5	0.5
1599767367.2464051	1599767367.2464051	160.0	1.0	1	0.5	0.5
1599767367.8406153	1599767367.8406153	161.0	0.0	0	0	0.5
1599767368.5903347	1599767368.5903347	162.0	1.0	1	0.5	0.5
1599767369.2424655	1599767369.2424655	163.0	0.0	0	0	0.5
1599767369.9421742	1599767369.9421742	164.0	3.0	3	0.8660254037844386	0.8660254037844386
1599767370.5747857	1599767370.5747857	165.0	2.0	2	0.7071067811865476	0.7071067811865476
1599767371.3101487	1599767371.3101487	166.0	3.0	3	0.8660254037844386	0.8660254037844386
1599767371.9466553	1599767371.9466553	167.0	5.0	5	1.118033988749895	1.118033988749895
1599767372.651928	1599767372.651928	168.0	2.0	2	0.7071067811865476	0.7071067811865476
1599767373.3070693	1599767373.3070693	169.0	1.0	1	0.5	0.5
1599767374.0092113	1599767374.0092113	170.0	2.0	2	0.7071067811865476	0.7071067811865476
1599767374.6493587	1599767374.6493587	171.0	2.0	2	0.7071067811865476	0.7071067811865476
1599767375.2471683	1599767375.2471683	172.0	3.0	3	0.8660254037844386	0.8660254037844386
1599767376.003453	1599767376.003453	173.0	1.0	1	0.5	0.5
1599767376.6996088	1599767376.6996088	174.0	0.0	0	0	0.5
1599767377.3646283	1599767377.3646283	175.0	0.0	0	0	0.5
1599767378.0640874	1599767378.0640874	176.0	0.0	0	0	0.5
1599767378.7019358	1599767378.7019358	177.0	0.0	0	0	0.5
1599767379.4052503	1599767379.4052503	178.0	0.0	0	0	0.5
1599767379.9807558	1599767379.9807558	179.0	1.0	1	0.5	0.5
1599767380.6213896	1599767380.6213896	180.0	0.0	0	0	0.5
1599767381.156607	1599767381.156607	181.0	2.0	2	0.7071067811865476	0.7071067811865476
1599767381.8334868	1599767381.8334868	182.0	2.0	2	0.7071067811865476	0.7071067811865476
1599767382.7163265	1599767382.7163265	183.0	0.0	0	0	0.5
1599767383.0376115	1599767383.0376115	184.0	2.0	2	0.7071067811865476	0.7071067811865476
1599767383.6488187	1599767383.6488187	185.0	2.0	2	0.7071067811865476	0.7071067811865476
1599767384.2556102	1599767384.2556102	186.0	1.0	1	0.5	0.5
1599767384.841295	1599767384.841295	187.0	0.0	0	0	0.5
1599767385.5310004	1599767385.5310004	188.0	1.0	1	0.5	0.5
1599767386.062348	1599767386.062348	189.0	0.0	0	0	0.5
1599767386.6764202	1599767386.6764202	190.0	0.0	0	0	0.5
1599767387.2736628	1599767387.2736628	191.0	0.0	0	0	0.5
1599767387.9004276	1599767387.9004276	192.0	2.0	2	0.7071067811865476	0.7071067811865476
1599767388.496923	1599767388.496923	193.0	2.0	2	0.7071067811865476	0.7071067811865476
1599767389.1253219	1599767389.1253219	194.0	2.0	2	0.7071067811865476	0.7071067811865476
1599767389.7083538	1599767389.7083538	195.0	1.0	1	0.5	0.5
1599767390.270986	1599767390.270986	196.0	1.0	1	0.5	0.5
1599767390.929386	1599767390.929386	197.0	1.0	1	0.5	0.5
1599767391.5527253	1599767391.5527253	198.0	1.0	1	0.5	0.5
1599767392.0828571	1599767392.0828571	199.0	0.0	0	0	0.5
1599767392.6073768	1599767392.6073768	200.0	0.0	0	0	0.5
1599767393.1809423	1599767393.1809423	201.0	1.0	1	0.5	0.5
1599767393.7393296	1599767393.7393296	202.0	0.0	0	0	0.5
1599767394.277325	1599767394.277325	203.0	1.0	1	0.5	0.5
1599767394.842156	1599767394.842156	204.0	1.0	1	0.5	0.5
1599767395.3738103	1599767395.3738103	205.0	0.0	0	0	0.5
1599767395.9323995	1599767395.9323995	206.0	1.0	1	0.5	0.5
1599767396.451803	1599767396.451803	207.0	1.0	1	0.5	0.5
1599767397.0249655	1599767397.0249655	208.0	0.0	0	0	0.5
1599767397.551392	1599767397.551392	209.0	0.0	0	0	0.5
1599767398.1161568	1599767398.1161568	210.0	3.0	3	0.8660254037844386	0.8660254037844386
1599767398.641171	1599767398.641171	211.0	0.0	0	0	0.5
1599767399.2283733	1599767399.2283733	212.0	2.0	2	0.7071067811865476	0.7071067811865476
1599767399.742588	1599767399.742588	213.0	2.0	2	0.7071067811865476	0.7071067811865476
1599767400.29625	1599767400.29625	214.0	6.0	6	1.224744871391589	1.224744871391589
1599767400.8522522	1599767400.8522522	215.0	1.0	1	0.5	0.5
1599767401.4463663	1599767401.4463663	216.0	5.0	5	1.118033988749895	1.118033988749895
1599767401.9158676	1599767401.9158676	217.0	7.0	7	1.3228756555322954	1.3228756555322954
1599767402.4946315	1599767402.4946315	218.0	8.0	8	1.4142135623730951	1.4142135623730951
1599767402.9691124	1599767402.9691124	219.0	1.0	1	0.5	0.5
1599767403.4675364	1599767403.4675364	220.0	6.0	6	1.224744871391589	1.224744871391589
1599767403.9542687	1599767403.9542687	221.0	5.0	5	1.118033988749895	1.118033988749895
1599767404.4605541	1599767404.4605541	222.0	10.0	10	1.5811388300841898	1.5811388300841898
1599767404.9349859	1599767404.9349859	223.0	1.0	1	0.5	0.5
1599767405.4480119	1599767405.4480119	224.0	0.0	0	0	0.5
1599767405.9251835	1599767405.9251835	225.0	1.0	1	0.5	0.5
1599767406.4250324	1599767406.4250324	226.0	0.0	0	0	0.5
1599767406.9043941	1599767406.9043941	227.0	2.0	2	0.7071067811865476	0.7071067811865476
1599767407.4171443	1599767407.4171443	228.0	0.0	0	0	0.5
1599767407.885788	1599767407.885788	229.0	1.0	1	0.5	0.5
1599767408.3951843	1599767408.3951843	230.0	0.0	0	0	0.5
1599767408.877258	1599767408.877258	231.0	0.0	0	0	0.5
1599767409.3582945	1599767409.3582945	232.0	1.0	1	0.5	0.5
1599767409.8508663	1599767409.8508663	233.0	1.0	1	0.5	0.5
1599767410.3328059	1599767410.3328059	234.0	0.0	0	0	0.5
1599767411.1075542	1599767411.1075542	235.0	1.0	1	0.5	0.5
1599767411.3285747	1599767411.3285747	236.0	1.0	1	0.5	0.5
1599767411.929431	1599767411.929431	237.0	4.0	4	1.0	1.0
1599767412.3443065	1599767412.3443065	238.0	3.0	3	0.8660254037844386	0.8660254037844386
1599767412.746071	1599767412.746071	239.0	3.0	3	0.8660254037844386	0.8660254037844386
1599767413.2112336	1599767413.2112336	240.0	1.0	1	0.5	0.5