# <?xml version="1.0" ?>
# <DataFileHeader>
#   <Variables>
#     <Element name="PulseProgram" type="dict">
#       <Element name="PulseProgram" type="str">C:/Users/ions/Documents/IonControl/project_dir/QuditLab/config/PulseProgramsPlus/Ablation_NeutralFluorescence.ppp</Element>
#       <Element name="NULL" type="Quantity">0</Element>
#       <Element name="FFFFFFFF" type="Quantity">18446744073709551615</Element>
#       <Element name="INTERRUPT_EXITCODE" type="Quantity">18446198715942174720</Element>
#       <Element name="InitializationShutter" type="int">4632</Element>
#       <Element name="NaturalAblation_mask" type="int">256</Element>
#       <Element name="NaturalAblation" type="int">256</Element>
#       <Element name="EndShutter" type="int">4632</Element>
#       <Element name="ShutterDelayTime" type="Quantity">0.5 s</Element>
#       <Element name="WindowStartTime" type="Quantity">141 us</Element>
#       <Element name="DetectTime" type="Quantity">20 us</Element>
#       <Element name="DummyVar" type="int">0</Element>
#       <Element name="experiments" type="int">1</Element>
#       <Element name="DetectCounters" type="int">1</Element>
#       <Element name="endLabel" type="Quantity">18446744073709551615</Element>
#       <Element name="experimentsleft" type="Quantity">100</Element>
#       <Element name="currentexperiment" type="Quantity">0</Element>
#       <Element name="inlinevar_1" type="Quantity">1</Element>
#     </Element>
#     <Element name="Scan" type="dict">
#       <Element name="scanParameter" type="str">DummyVar</Element>
#       <Element name="scanTarget" type="str">Internal</Element>
#       <Element name="scantype" type="int">0</Element>
#       <Element name="scanMode" type="int">0</Element>
#       <Element name="xUnit" type="str"></Element>
#       <Element name="xExpression" type="str"></Element>
#       <Element name="loadPP" type="bool">True</Element>
#       <Element name="loadPPName" type="str">Ablation_IonFluorescence_Nat.ppp</Element>
#       <Element name="parallelInternalScanParameter" type="str">None</Element>
#     </Element>
#     <ColumnSpec>timeTickFirst, timeTickLast, x, PMT Count, PMT Count_raw, PMT Count_bottom, PMT Count_top</ColumnSpec>
#     <Element name="comment" type="str"></Element>
#     <Element name="lastDataAquired" type="datetime">2020-09-10 19:57:51.873762+00:00</Element>
#     <Element name="name" type="str"></Element>
#     <Element name="traceCreation" type="datetime">2020-09-10 19:55:53.106032+00:00</Element>
#     <Element name="traceFinalized" type="datetime">2020-09-10 19:57:51.876284+00:00</Element>
#     <TracePlottingList>
#       <TracePlotting _bottomColumn="PMT Count_bottom" _filtColumn="None" _fitFunction="None" _heightColumn="height" _rawColumn="PMT Count_raw" _topColumn="PMT Count_top" _xColumn="x" _yColumn="PMT Count" fill="True" name="PMT Count" properties="&lt;trace.PlottedTrace.PlottedTraceProperties object at 0x000002A9853E43C8&gt;" style="0" type="0" windowName="Scan Data" xAxisLabel="DummyVar" xAxisUnit="" yAxisLabel="None">
#         <PlottedTraceProperties averageSameX="False" averageType="0" combinePoints="0"/>
#       </TracePlotting>
#     </TracePlottingList>
#   </Variables>
# </DataFileHeader>
1599767752.2099907	1599767752.2099907	1.0	7.0	7	1.3228756555322954	1.3228756555322954
1599767753.1041522	1599767753.1041522	2.0	1.0	1	0.5	0.5
1599767753.5764582	1599767753.5764582	3.0	4.0	4	1.0	1.0
1599767753.909346	1599767753.909346	4.0	1.0	1	0.5	0.5
1599767754.3680525	1599767754.3680525	5.0	1.0	1	0.5	0.5
1599767754.7050257	1599767754.7050257	6.0	0.0	0	0	0.5
1599767755.1048048	1599767755.1048048	7.0	1.0	1	0.5	0.5
1599767755.5200355	1599767755.5200355	8.0	3.0	3	0.8660254037844386	0.8660254037844386
1599767755.927238	1599767755.927238	9.0	5.0	5	1.118033988749895	1.118033988749895
1599767756.3410044	1599767756.3410044	10.0	1.0	1	0.5	0.5
1599767756.74694	1599767756.74694	11.0	9.0	9	1.5	1.5
1599767757.1630251	1599767757.1630251	12.0	0.0	0	0	0.5
1599767757.5717585	1599767757.5717585	13.0	6.0	6	1.224744871391589	1.224744871391589
1599767757.987127	1599767757.987127	14.0	1.0	1	0.5	0.5
1599767758.4523523	1599767758.4523523	15.0	5.0	5	1.118033988749895	1.118033988749895
1599767758.8075004	1599767758.8075004	16.0	8.0	8	1.4142135623730951	1.4142135623730951
1599767759.2207093	1599767759.2207093	17.0	53.0	53	3.640054944640259	3.640054944640259
1599767759.6302388	1599767759.6302388	18.0	90.0	90	4.743416490252569	4.743416490252569
1599767760.039495	1599767760.039495	19.0	75.0	75	4.330127018922194	4.330127018922194
1599767760.4912434	1599767760.4912434	20.0	61.0	61	3.905124837953327	3.905124837953327
1599767760.9480312	1599767760.9480312	21.0	77.0	77	4.387482193696061	4.387482193696061
1599767761.4040182	1599767761.4040182	22.0	73.0	73	4.272001872658765	4.272001872658765
1599767761.8502886	1599767761.8502886	23.0	54.0	54	3.6742346141747673	3.6742346141747673
1599767762.2974262	1599767762.2974262	24.0	56.0	56	3.7416573867739413	3.7416573867739413
1599767762.7545342	1599767762.7545342	25.0	66.0	66	4.06201920231798	4.06201920231798
1599767763.2118185	1599767763.2118185	26.0	89.0	89	4.716990566028302	4.716990566028302
1599767763.656606	1599767763.656606	27.0	96.0	96	4.898979485566356	4.898979485566356
1599767764.1094422	1599767764.1094422	28.0	76.0	76	4.358898943540674	4.358898943540674
1599767764.5605776	1599767764.5605776	29.0	8.0	8	1.4142135623730951	1.4142135623730951
1599767765.0238385	1599767765.0238385	30.0	3.0	3	0.8660254037844386	0.8660254037844386
1599767765.4640837	1599767765.4640837	31.0	1.0	1	0.5	0.5
1599767765.9138613	1599767765.9138613	32.0	10.0	10	1.5811388300841898	1.5811388300841898
1599767766.3763893	1599767766.3763893	33.0	30.0	30	2.7386127875258306	2.7386127875258306
1599767766.820501	1599767766.820501	34.0	26.0	26	2.5495097567963922	2.5495097567963922
1599767767.272189	1599767767.272189	35.0	4.0	4	1.0	1.0
1599767767.7254868	1599767767.7254868	36.0	3.0	3	0.8660254037844386	0.8660254037844386
1599767768.1835287	1599767768.1835287	37.0	5.0	5	1.118033988749895	1.118033988749895
1599767768.6255028	1599767768.6255028	38.0	13.0	13	1.8027756377319946	1.8027756377319946
1599767769.077651	1599767769.077651	39.0	20.0	20	2.23606797749979	2.23606797749979
1599767769.9135923	1599767769.9135923	40.0	6.0	6	1.224744871391589	1.224744871391589
1599767770.1465902	1599767770.1465902	41.0	13.0	13	1.8027756377319946	1.8027756377319946
1599767770.5732844	1599767770.5732844	42.0	23.0	23	2.3979157616563596	2.3979157616563596
1599767771.0715442	1599767771.0715442	43.0	39.0	39	3.122498999199199	3.122498999199199
1599767771.5685964	1599767771.5685964	44.0	20.0	20	2.23606797749979	2.23606797749979
1599767772.0712185	1599767772.0712185	45.0	31.0	31	2.7838821814150108	2.7838821814150108
1599767772.5615292	1599767772.5615292	46.0	14.0	14	1.8708286933869707	1.8708286933869707
1599767773.0605538	1599767773.0605538	47.0	10.0	10	1.5811388300841898	1.5811388300841898
1599767773.5627346	1599767773.5627346	48.0	36.0	36	3.0	3.0
1599767774.0564272	1599767774.0564272	49.0	29.0	29	2.692582403567252	2.692582403567252
1599767774.5561223	1599767774.5561223	50.0	22.0	22	2.345207879911715	2.345207879911715
1599767775.0474055	1599767775.0474055	51.0	106.0	106	5.1478150704935	5.1478150704935
1599767775.5563426	1599767775.5563426	52.0	165.0	165	6.422616289332565	6.422616289332565
1599767776.0538514	1599767776.0538514	53.0	181.0	181	6.726812023536855	6.726812023536855
1599767776.5566008	1599767776.5566008	54.0	165.0	165	6.422616289332565	6.422616289332565
1599767777.062021	1599767777.062021	55.0	156.0	156	6.244997998398398	6.244997998398398
1599767777.5402987	1599767777.5402987	56.0	157.0	157	6.264982043070834	6.264982043070834
1599767778.0422344	1599767778.0422344	57.0	109.0	109	5.220153254455275	5.220153254455275
1599767778.5315819	1599767778.5315819	58.0	151.0	151	6.144102863722254	6.144102863722254
1599767779.027963	1599767779.027963	59.0	126.0	126	5.612486080160912	5.612486080160912
1599767779.5819843	1599767779.5819843	60.0	156.0	156	6.244997998398398	6.244997998398398
1599767780.1277802	1599767780.1277802	61.0	109.0	109	5.220153254455275	5.220153254455275
1599767780.6744049	1599767780.6744049	62.0	167.0	167	6.461423991660043	6.461423991660043
1599767781.228736	1599767781.228736	63.0	164.0	164	6.4031242374328485	6.4031242374328485
1599767781.7691834	1599767781.7691834	64.0	145.0	145	6.020797289396148	6.020797289396148
1599767782.3093615	1599767782.3093615	65.0	152.0	152	6.164414002968976	6.164414002968976
1599767782.866845	1599767782.866845	66.0	148.0	148	6.082762530298219	6.082762530298219
1599767783.7087383	1599767783.7087383	67.0	38.0	38	3.082207001484488	3.082207001484488
1599767784.3400397	1599767784.3400397	68.0	25.0	25	2.5	2.5
1599767784.683396	1599767784.683396	69.0	10.0	10	1.5811388300841898	1.5811388300841898
1599767785.063114	1599767785.063114	70.0	7.0	7	1.3228756555322954	1.3228756555322954
1599767785.5905483	1599767785.5905483	71.0	9.0	9	1.5	1.5
1599767786.1402707	1599767786.1402707	72.0	6.0	6	1.224744871391589	1.224744871391589
1599767786.6971655	1599767786.6971655	73.0	16.0	16	2.0	2.0
1599767787.2320838	1599767787.2320838	74.0	4.0	4	1.0	1.0
1599767787.8138523	1599767787.8138523	75.0	1.0	1	0.5	0.5
1599767788.3276825	1599767788.3276825	76.0	3.0	3	0.8660254037844386	0.8660254037844386
1599767788.9701102	1599767788.9701102	77.0	1.0	1	0.5	0.5
1599767789.4260764	1599767789.4260764	78.0	4.0	4	1.0	1.0
1599767789.9812906	1599767789.9812906	79.0	5.0	5	1.118033988749895	1.118033988749895
1599767790.5774202	1599767790.5774202	80.0	7.0	7	1.3228756555322954	1.3228756555322954
1599767791.173416	1599767791.173416	81.0	0.0	0	0	0.5
1599767791.786926	1599767791.786926	82.0	3.0	3	0.8660254037844386	0.8660254037844386
1599767792.3901548	1599767792.3901548	83.0	7.0	7	1.3228756555322954	1.3228756555322954
1599767793.304879	1599767793.304879	84.0	5.0	5	1.118033988749895	1.118033988749895
1599767793.5862381	1599767793.5862381	85.0	26.0	26	2.5495097567963922	2.5495097567963922
1599767794.1856372	1599767794.1856372	86.0	13.0	13	1.8027756377319946	1.8027756377319946
1599767794.795355	1599767794.795355	87.0	123.0	123	5.545268253204709	5.545268253204709
1599767795.3942618	1599767795.3942618	88.0	142.0	142	5.958187643906492	5.958187643906492
1599767795.9990282	1599767795.9990282	89.0	34.0	34	2.9154759474226504	2.9154759474226504
1599767796.596148	1599767796.596148	90.0	9.0	9	1.5	1.5
1599767797.1950738	1599767797.1950738	91.0	23.0	23	2.3979157616563596	2.3979157616563596
1599767797.8066444	1599767797.8066444	92.0	112.0	112	5.291502622129181	5.291502622129181
1599767798.4031353	1599767798.4031353	93.0	72.0	72	4.242640687119285	4.242640687119285
1599767799.0002718	1599767799.0002718	94.0	107.0	107	5.172040216394301	5.172040216394301
1599767799.5977354	1599767799.5977354	95.0	75.0	75	4.330127018922194	4.330127018922194
1599767800.213269	1599767800.213269	96.0	132.0	132	5.744562646538029	5.744562646538029
1599767800.80969	1599767800.80969	97.0	94.0	94	4.847679857416329	4.847679857416329
1599767801.4562175	1599767801.4562175	98.0	86.0	86	4.636809247747852	4.636809247747852
1599767802.007922	1599767802.007922	99.0	113.0	113	5.315072906367325	5.315072906367325
1599767802.6814492	1599767802.6814492	100.0	91.0	91	4.769696007084728	4.769696007084728
1599767803.3412666	1599767803.3412666	101.0	79.0	79	4.444097208657794	4.444097208657794
1599767804.006078	1599767804.006078	102.0	101.0	101	5.024937810560445	5.024937810560445
1599767804.666583	1599767804.666583	103.0	58.0	58	3.8078865529319543	3.8078865529319543
1599767805.316848	1599767805.316848	104.0	47.0	47	3.427827300200522	3.427827300200522
1599767806.0381455	1599767806.0381455	105.0	7.0	7	1.3228756555322954	1.3228756555322954
1599767806.6893108	1599767806.6893108	106.0	4.0	4	1.0	1.0
1599767807.3077595	1599767807.3077595	107.0	12.0	12	1.7320508075688772	1.7320508075688772
1599767807.983604	1599767807.983604	108.0	6.0	6	1.224744871391589	1.224744871391589
1599767808.6948678	1599767808.6948678	109.0	3.0	3	0.8660254037844386	0.8660254037844386
1599767809.2894444	1599767809.2894444	110.0	5.0	5	1.118033988749895	1.118033988749895
1599767810.0126812	1599767810.0126812	111.0	3.0	3	0.8660254037844386	0.8660254037844386
1599767810.628705	1599767810.628705	112.0	4.0	4	1.0	1.0
1599767811.2808266	1599767811.2808266	113.0	3.0	3	0.8660254037844386	0.8660254037844386
1599767811.9522758	1599767811.9522758	114.0	4.0	4	1.0	1.0
1599767812.6130404	1599767812.6130404	115.0	1.0	1	0.5	0.5
1599767813.2848482	1599767813.2848482	116.0	7.0	7	1.3228756555322954	1.3228756555322954
1599767813.9230042	1599767813.9230042	117.0	0.0	0	0	0.5
1599767814.645849	1599767814.645849	118.0	6.0	6	1.224744871391589	1.224744871391589
1599767815.2523205	1599767815.2523205	119.0	7.0	7	1.3228756555322954	1.3228756555322954
1599767815.9042046	1599767815.9042046	120.0	19.0	19	2.179449471770337	2.179449471770337
1599767816.4428542	1599767816.4428542	121.0	11.0	11	1.6583123951777	1.6583123951777
1599767817.0988324	1599767817.0988324	122.0	26.0	26	2.5495097567963922	2.5495097567963922
1599767817.6444952	1599767817.6444952	123.0	4.0	4	1.0	1.0
1599767818.2294812	1599767818.2294812	124.0	4.0	4	1.0	1.0
1599767818.8770423	1599767818.8770423	125.0	5.0	5	1.118033988749895	1.118033988749895
1599767819.4700696	1599767819.4700696	126.0	13.0	13	1.8027756377319946	1.8027756377319946
1599767820.0136204	1599767820.0136204	127.0	2.0	2	0.7071067811865476	0.7071067811865476
1599767821.0824413	1599767821.0824413	128.0	6.0	6	1.224744871391589	1.224744871391589
1599767821.2048063	1599767821.2048063	129.0	3.0	3	0.8660254037844386	0.8660254037844386
1599767821.8033388	1599767821.8033388	130.0	5.0	5	1.118033988749895	1.118033988749895
1599767822.4595392	1599767822.4595392	131.0	4.0	4	1.0	1.0
1599767823.0655434	1599767823.0655434	132.0	4.0	4	1.0	1.0
1599767823.5968692	1599767823.5968692	133.0	6.0	6	1.224744871391589	1.224744871391589
1599767824.1971242	1599767824.1971242	134.0	5.0	5	1.118033988749895	1.118033988749895
1599767824.8408203	1599767824.8408203	135.0	2.0	2	0.7071067811865476	0.7071067811865476
1599767825.4444003	1599767825.4444003	136.0	0.0	0	0	0.5
1599767826.0278108	1599767826.0278108	137.0	1.0	1	0.5	0.5
1599767826.5732944	1599767826.5732944	138.0	2.0	2	0.7071067811865476	0.7071067811865476
1599767827.190871	1599767827.190871	139.0	7.0	7	1.3228756555322954	1.3228756555322954
1599767827.749851	1599767827.749851	140.0	21.0	21	2.29128784747792	2.29128784747792
1599767828.2343645	1599767828.2343645	141.0	113.0	113	5.315072906367325	5.315072906367325
1599767828.8177538	1599767828.8177538	142.0	50.0	50	3.5355339059327378	3.5355339059327378
1599767829.3576343	1599767829.3576343	143.0	73.0	73	4.272001872658765	4.272001872658765
1599767829.8845086	1599767829.8845086	144.0	59.0	59	3.840572873934304	3.840572873934304
1599767830.4456937	1599767830.4456937	145.0	79.0	79	4.444097208657794	4.444097208657794
1599767830.9680371	1599767830.9680371	146.0	70.0	70	4.183300132670378	4.183300132670378
1599767831.4744797	1599767831.4744797	147.0	69.0	69	4.153311931459037	4.153311931459037
1599767832.0352857	1599767832.0352857	148.0	55.0	55	3.7080992435478315	3.7080992435478315
1599767832.722251	1599767832.722251	149.0	55.0	55	3.7080992435478315	3.7080992435478315
1599767833.0725615	1599767833.0725615	150.0	101.0	101	5.024937810560445	5.024937810560445
1599767833.6046767	1599767833.6046767	151.0	82.0	82	4.527692569068709	4.527692569068709
1599767834.1780534	1599767834.1780534	152.0	7.0	7	1.3228756555322954	1.3228756555322954
1599767834.7023926	1599767834.7023926	153.0	1.0	1	0.5	0.5
1599767835.2533476	1599767835.2533476	154.0	4.0	4	1.0	1.0
1599767835.7564094	1599767835.7564094	155.0	9.0	9	1.5	1.5
1599767836.635154	1599767836.635154	156.0	16.0	16	2.0	2.0
1599767837.0522387	1599767837.0522387	157.0	2.0	2	0.7071067811865476	0.7071067811865476
1599767837.4149046	1599767837.4149046	158.0	2.0	2	0.7071067811865476	0.7071067811865476
1599767837.887531	1599767837.887531	159.0	1.0	1	0.5	0.5
1599767838.395495	1599767838.395495	160.0	8.0	8	1.4142135623730951	1.4142135623730951
1599767838.8798862	1599767838.8798862	161.0	34.0	34	2.9154759474226504	2.9154759474226504
1599767839.3750167	1599767839.3750167	162.0	56.0	56	3.7416573867739413	3.7416573867739413
1599767840.1940675	1599767840.1940675	163.0	23.0	23	2.3979157616563596	2.3979157616563596
1599767840.3221223	1599767840.3221223	164.0	9.0	9	1.5	1.5
1599767840.8117747	1599767840.8117747	165.0	39.0	39	3.122498999199199	3.122498999199199
1599767841.2979546	1599767841.2979546	166.0	19.0	19	2.179449471770337	2.179449471770337
1599767841.7697864	1599767841.7697864	167.0	7.0	7	1.3228756555322954	1.3228756555322954
1599767842.2611296	1599767842.2611296	168.0	10.0	10	1.5811388300841898	1.5811388300841898
1599767842.7354953	1599767842.7354953	169.0	7.0	7	1.3228756555322954	1.3228756555322954
1599767843.2199373	1599767843.2199373	170.0	20.0	20	2.23606797749979	2.23606797749979
1599767843.7077346	1599767843.7077346	171.0	5.0	5	1.118033988749895	1.118033988749895
1599767844.18153	1599767844.18153	172.0	57.0	57	3.774917217635375	3.774917217635375
1599767844.6664762	1599767844.6664762	173.0	37.0	37	3.0413812651491097	3.0413812651491097
1599767845.1548748	1599767845.1548748	174.0	145.0	145	6.020797289396148	6.020797289396148
1599767845.638702	1599767845.638702	175.0	162.0	162	6.363961030678928	6.363961030678928
1599767846.1156917	1599767846.1156917	176.0	187.0	187	6.837397165588672	6.837397165588672
1599767846.601777	1599767846.601777	177.0	167.0	167	6.461423991660043	6.461423991660043
1599767847.0857613	1599767847.0857613	178.0	169.0	169	6.5	6.5
1599767847.560304	1599767847.560304	179.0	154.0	154	6.2048368229954285	6.2048368229954285
1599767847.9978871	1599767847.9978871	180.0	128.0	128	5.656854249492381	5.656854249492381
1599767848.4376595	1599767848.4376595	181.0	153.0	153	6.18465843842649	6.18465843842649
1599767848.8740194	1599767848.8740194	182.0	151.0	151	6.144102863722254	6.144102863722254
1599767849.3066938	1599767849.3066938	183.0	99.0	99	4.9749371855331	4.9749371855331
1599767849.7327604	1599767849.7327604	184.0	159.0	159	6.304760106459246	6.304760106459246
1599767850.1658945	1599767850.1658945	185.0	130.0	130	5.70087712549569	5.70087712549569
1599767850.6058178	1599767850.6058178	186.0	164.0	164	6.4031242374328485	6.4031242374328485
1599767851.0416765	1599767851.0416765	187.0	168.0	168	6.48074069840786	6.48074069840786
1599767851.4745147	1599767851.4745147	188.0	146.0	146	6.041522986797286	6.041522986797286
1599767851.9146209	1599767851.9146209	189.0	114.0	114	5.338539126015656	5.338539126015656
1599767852.3512042	1599767852.3512042	190.0	49.0	49	3.5	3.5
1599767852.7842789	1599767852.7842789	191.0	24.0	24	2.449489742783178	2.449489742783178
1599767853.2055314	1599767853.2055314	192.0	9.0	9	1.5	1.5
1599767853.6395252	1599767853.6395252	193.0	6.0	6	1.224744871391589	1.224744871391589
1599767854.126188	1599767854.126188	194.0	13.0	13	1.8027756377319946	1.8027756377319946
1599767854.5037596	1599767854.5037596	195.0	9.0	9	1.5	1.5
1599767854.9419641	1599767854.9419641	196.0	12.0	12	1.7320508075688772	1.7320508075688772
1599767855.374486	1599767855.374486	197.0	1.0	1	0.5	0.5
1599767855.817259	1599767855.817259	198.0	6.0	6	1.224744871391589	1.224744871391589
1599767856.2407062	1599767856.2407062	199.0	1.0	1	0.5	0.5
1599767856.6941369	1599767856.6941369	200.0	3.0	3	0.8660254037844386	0.8660254037844386
1599767857.0285556	1599767857.0285556	201.0	5.0	5	1.118033988749895	1.118033988749895
1599767857.4210677	1599767857.4210677	202.0	9.0	9	1.5	1.5
1599767857.810596	1599767857.810596	203.0	1.0	1	0.5	0.5
1599767858.4027896	1599767858.4027896	204.0	5.0	5	1.118033988749895	1.118033988749895
1599767858.5941904	1599767858.5941904	205.0	0.0	0	0	0.5
1599767858.9901164	1599767858.9901164	206.0	2.0	2	0.7071067811865476	0.7071067811865476
1599767859.369883	1599767859.369883	207.0	8.0	8	1.4142135623730951	1.4142135623730951
1599767859.76192	1599767859.76192	208.0	16.0	16	2.0	2.0
1599767860.1484604	1599767860.1484604	209.0	18.0	18	2.1213203435596424	2.1213203435596424
1599767860.5505874	1599767860.5505874	210.0	42.0	42	3.24037034920393	3.24037034920393
1599767860.93514	1599767860.93514	211.0	101.0	101	5.024937810560445	5.024937810560445
1599767861.3284237	1599767861.3284237	212.0	147.0	147	6.06217782649107	6.06217782649107
1599767861.7174184	1599767861.7174184	213.0	20.0	20	2.23606797749979	2.23606797749979
1599767862.1054559	1599767862.1054559	214.0	15.0	15	1.9364916731037085	1.9364916731037085
1599767862.5040064	1599767862.5040064	215.0	100.0	100	5.0	5.0
1599767862.8947573	1599767862.8947573	216.0	77.0	77	4.387482193696061	4.387482193696061
1599767863.278781	1599767863.278781	217.0	89.0	89	4.716990566028302	4.716990566028302
1599767863.673488	1599767863.673488	218.0	84.0	84	4.58257569495584	4.58257569495584
1599767864.0580938	1599767864.0580938	219.0	78.0	78	4.415880433163924	4.415880433163924
1599767864.4075844	1599767864.4075844	220.0	92.0	92	4.795831523312719	4.795831523312719
1599767864.7658415	1599767864.7658415	221.0	114.0	114	5.338539126015656	5.338539126015656
1599767865.1176744	1599767865.1176744	222.0	70.0	70	4.183300132670378	4.183300132670378
1599767865.462841	1599767865.462841	223.0	85.0	85	4.6097722286464435	4.6097722286464435
1599767865.8217838	1599767865.8217838	224.0	63.0	63	3.968626966596886	3.968626966596886
1599767866.1745963	1599767866.1745963	225.0	69.0	69	4.153311931459037	4.153311931459037
1599767866.5170808	1599767866.5170808	226.0	79.0	79	4.444097208657794	4.444097208657794
1599767866.8698292	1599767866.8698292	227.0	43.0	43	3.278719262151	3.278719262151
1599767867.224388	1599767867.224388	228.0	1.0	1	0.5	0.5
1599767867.5828502	1599767867.5828502	229.0	0.0	0	0	0.5
1599767867.926413	1599767867.926413	230.0	4.0	4	1.0	1.0
1599767868.2753005	1599767868.2753005	231.0	9.0	9	1.5	1.5
1599767868.6290402	1599767868.6290402	232.0	3.0	3	0.8660254037844386	0.8660254037844386
1599767868.9840662	1599767868.9840662	233.0	1.0	1	0.5	0.5
1599767869.3310888	1599767869.3310888	234.0	4.0	4	1.0	1.0
1599767869.6888063	1599767869.6888063	235.0	1.0	1	0.5	0.5
1599767870.0391283	1599767870.0391283	236.0	3.0	3	0.8660254037844386	0.8660254037844386
1599767870.3862612	1599767870.3862612	237.0	2.0	2	0.7071067811865476	0.7071067811865476
1599767870.7419276	1599767870.7419276	238.0	3.0	3	0.8660254037844386	0.8660254037844386
1599767871.096219	1599767871.096219	239.0	0.0	0	0	0.5
1599767871.4824789	1599767871.4824789	240.0	4.0	4	1.0	1.0