# <?xml version="1.0" ?>
# <DataFileHeader>
#   <Variables>
#     <Element name="PulseProgram" type="dict">
#       <Element name="PulseProgram" type="str">C:/Users/ions/Documents/IonControl/project_dir/QuditLab/config/PulseProgramsPlus/Ablation_NeutralFluorescence.ppp</Element>
#       <Element name="NULL" type="Quantity">0</Element>
#       <Element name="FFFFFFFF" type="Quantity">18446744073709551615</Element>
#       <Element name="INTERRUPT_EXITCODE" type="Quantity">18446198715942174720</Element>
#       <Element name="InitializationShutter" type="int">4632</Element>
#       <Element name="NaturalAblation_mask" type="int">256</Element>
#       <Element name="NaturalAblation" type="int">256</Element>
#       <Element name="EndShutter" type="int">4632</Element>
#       <Element name="ShutterDelayTime" type="Quantity">0.5 s</Element>
#       <Element name="WindowStartTime" type="Quantity">141 us</Element>
#       <Element name="DetectTime" type="Quantity">20 us</Element>
#       <Element name="DummyVar" type="int">0</Element>
#       <Element name="experiments" type="int">1</Element>
#       <Element name="DetectCounters" type="int">1</Element>
#       <Element name="endLabel" type="Quantity">18446744073709551615</Element>
#       <Element name="experimentsleft" type="Quantity">100</Element>
#       <Element name="currentexperiment" type="Quantity">0</Element>
#       <Element name="inlinevar_1" type="Quantity">1</Element>
#     </Element>
#     <Element name="Scan" type="dict">
#       <Element name="scanParameter" type="str">DummyVar</Element>
#       <Element name="scanTarget" type="str">Internal</Element>
#       <Element name="scantype" type="int">0</Element>
#       <Element name="scanMode" type="int">0</Element>
#       <Element name="xUnit" type="str"></Element>
#       <Element name="xExpression" type="str"></Element>
#       <Element name="loadPP" type="bool">True</Element>
#       <Element name="loadPPName" type="str">Ablation_IonFluorescence_Nat.ppp</Element>
#       <Element name="parallelInternalScanParameter" type="str">None</Element>
#     </Element>
#     <ColumnSpec>timeTickFirst, timeTickLast, x, PMT Count, PMT Count_raw, PMT Count_bottom, PMT Count_top</ColumnSpec>
#     <Element name="comment" type="str"></Element>
#     <Element name="lastDataAquired" type="datetime">2020-09-10 19:46:27.335351+00:00</Element>
#     <Element name="name" type="str"></Element>
#     <Element name="traceCreation" type="datetime">2020-09-10 19:44:29.741123+00:00</Element>
#     <Element name="traceFinalized" type="datetime">2020-09-10 19:46:27.338321+00:00</Element>
#     <TracePlottingList>
#       <TracePlotting _bottomColumn="PMT Count_bottom" _filtColumn="None" _fitFunction="None" _heightColumn="height" _rawColumn="PMT Count_raw" _topColumn="PMT Count_top" _xColumn="x" _yColumn="PMT Count" fill="True" name="PMT Count" properties="&lt;trace.PlottedTrace.PlottedTraceProperties object at 0x000002A98391FE10&gt;" style="0" type="0" windowName="Scan Data" xAxisLabel="DummyVar" xAxisUnit="" yAxisLabel="None">
#         <PlottedTraceProperties averageSameX="False" averageType="0" combinePoints="0"/>
#       </TracePlotting>
#     </TracePlottingList>
#   </Variables>
# </DataFileHeader>
1599767068.6018274	1599767068.6018274	1.0	3.0	3	0.8660254037844386	0.8660254037844386
1599767069.7384648	1599767069.7384648	2.0	0.0	0	0	0.5
1599767070.3419802	1599767070.3419802	3.0	0.0	0	0	0.5
1599767070.7553449	1599767070.7553449	4.0	0.0	0	0	0.5
1599767071.3144963	1599767071.3144963	5.0	2.0	2	0.7071067811865476	0.7071067811865476
1599767071.9851806	1599767071.9851806	6.0	1.0	1	0.5	0.5
1599767072.4650126	1599767072.4650126	7.0	2.0	2	0.7071067811865476	0.7071067811865476
1599767073.0576735	1599767073.0576735	8.0	2.0	2	0.7071067811865476	0.7071067811865476
1599767073.6221423	1599767073.6221423	9.0	0.0	0	0	0.5
1599767074.1661131	1599767074.1661131	10.0	0.0	0	0	0.5
1599767074.789685	1599767074.789685	11.0	2.0	2	0.7071067811865476	0.7071067811865476
1599767075.4500904	1599767075.4500904	12.0	0.0	0	0	0.5
1599767075.951751	1599767075.951751	13.0	1.0	1	0.5	0.5
1599767076.5472386	1599767076.5472386	14.0	0.0	0	0	0.5
1599767077.1096208	1599767077.1096208	15.0	0.0	0	0	0.5
1599767077.7057934	1599767077.7057934	16.0	0.0	0	0	0.5
1599767078.2763133	1599767078.2763133	17.0	2.0	2	0.7071067811865476	0.7071067811865476
1599767078.866218	1599767078.866218	18.0	1.0	1	0.5	0.5
1599767079.4378104	1599767079.4378104	19.0	0.0	0	0	0.5
1599767080.0273697	1599767080.0273697	20.0	0.0	0	0	0.5
1599767080.6016088	1599767080.6016088	21.0	1.0	1	0.5	0.5
1599767081.127088	1599767081.127088	22.0	0.0	0	0	0.5
1599767081.7617202	1599767081.7617202	23.0	0.0	0	0	0.5
1599767082.3382971	1599767082.3382971	24.0	0.0	0	0	0.5
1599767082.9201875	1599767082.9201875	25.0	3.0	3	0.8660254037844386	0.8660254037844386
1599767083.4739716	1599767083.4739716	26.0	2.0	2	0.7071067811865476	0.7071067811865476
1599767083.984175	1599767083.984175	27.0	2.0	2	0.7071067811865476	0.7071067811865476
1599767084.530149	1599767084.530149	28.0	0.0	0	0	0.5
1599767085.0309484	1599767085.0309484	29.0	0.0	0	0	0.5
1599767085.5500274	1599767085.5500274	30.0	0.0	0	0	0.5
1599767086.0927405	1599767086.0927405	31.0	0.0	0	0	0.5
1599767086.606727	1599767086.606727	32.0	1.0	1	0.5	0.5
1599767087.1151302	1599767087.1151302	33.0	0.0	0	0	0.5
1599767087.6360688	1599767087.6360688	34.0	0.0	0	0	0.5
1599767088.1685452	1599767088.1685452	35.0	0.0	0	0	0.5
1599767088.7085514	1599767088.7085514	36.0	0.0	0	0	0.5
1599767089.2095084	1599767089.2095084	37.0	1.0	1	0.5	0.5
1599767089.7464592	1599767089.7464592	38.0	1.0	1	0.5	0.5
1599767090.2506232	1599767090.2506232	39.0	0.0	0	0	0.5
1599767090.7810507	1599767090.7810507	40.0	0.0	0	0	0.5
1599767091.3071752	1599767091.3071752	41.0	0.0	0	0	0.5
1599767091.8116405	1599767091.8116405	42.0	1.0	1	0.5	0.5
1599767092.3541212	1599767092.3541212	43.0	0.0	0	0	0.5
1599767092.8894925	1599767092.8894925	44.0	1.0	1	0.5	0.5
1599767093.4438267	1599767093.4438267	45.0	1.0	1	0.5	0.5
1599767093.880764	1599767093.880764	46.0	1.0	1	0.5	0.5
1599767094.344222	1599767094.344222	47.0	2.0	2	0.7071067811865476	0.7071067811865476
1599767094.8258507	1599767094.8258507	48.0	1.0	1	0.5	0.5
1599767095.287737	1599767095.287737	49.0	0.0	0	0	0.5
1599767095.7548718	1599767095.7548718	50.0	0.0	0	0	0.5
1599767096.2104168	1599767096.2104168	51.0	2.0	2	0.7071067811865476	0.7071067811865476
1599767096.699715	1599767096.699715	52.0	0.0	0	0	0.5
1599767097.1704307	1599767097.1704307	53.0	0.0	0	0	0.5
1599767097.6481845	1599767097.6481845	54.0	0.0	0	0	0.5
1599767098.1096525	1599767098.1096525	55.0	1.0	1	0.5	0.5
1599767098.5951872	1599767098.5951872	56.0	0.0	0	0	0.5
1599767099.055552	1599767099.055552	57.0	1.0	1	0.5	0.5
1599767099.5341382	1599767099.5341382	58.0	1.0	1	0.5	0.5
1599767099.996663	1599767099.996663	59.0	0.0	0	0	0.5
1599767100.46782	1599767100.46782	60.0	1.0	1	0.5	0.5
1599767100.9753127	1599767100.9753127	61.0	1.0	1	0.5	0.5
1599767101.403243	1599767101.403243	62.0	0.0	0	0	0.5
1599767101.9833584	1599767101.9833584	63.0	0.0	0	0	0.5
1599767102.6983852	1599767102.6983852	64.0	2.0	2	0.7071067811865476	0.7071067811865476
1599767102.8187835	1599767102.8187835	65.0	1.0	1	0.5	0.5
1599767103.2452338	1599767103.2452338	66.0	0.0	0	0	0.5
1599767103.6735125	1599767103.6735125	67.0	1.0	1	0.5	0.5
1599767104.0973113	1599767104.0973113	68.0	0.0	0	0	0.5
1599767104.5304112	1599767104.5304112	69.0	1.0	1	0.5	0.5
1599767104.9360354	1599767104.9360354	70.0	1.0	1	0.5	0.5
1599767105.3542075	1599767105.3542075	71.0	2.0	2	0.7071067811865476	0.7071067811865476
1599767105.8084204	1599767105.8084204	72.0	0.0	0	0	0.5
1599767106.2237134	1599767106.2237134	73.0	1.0	1	0.5	0.5
1599767106.6878703	1599767106.6878703	74.0	0.0	0	0	0.5
1599767107.0687196	1599767107.0687196	75.0	0.0	0	0	0.5
1599767107.510415	1599767107.510415	76.0	1.0	1	0.5	0.5
1599767107.9109826	1599767107.9109826	77.0	2.0	2	0.7071067811865476	0.7071067811865476
1599767108.3368995	1599767108.3368995	78.0	1.0	1	0.5	0.5
1599767108.826084	1599767108.826084	79.0	1.0	1	0.5	0.5
1599767109.1978588	1599767109.1978588	80.0	3.0	3	0.8660254037844386	0.8660254037844386
1599767109.6080997	1599767109.6080997	81.0	2.0	2	0.7071067811865476	0.7071067811865476
1599767110.0417156	1599767110.0417156	82.0	2.0	2	0.7071067811865476	0.7071067811865476
1599767110.4398644	1599767110.4398644	83.0	3.0	3	0.8660254037844386	0.8660254037844386
1599767110.8915274	1599767110.8915274	84.0	1.0	1	0.5	0.5
1599767111.300656	1599767111.300656	85.0	5.0	5	1.118033988749895	1.118033988749895
1599767111.8040879	1599767111.8040879	86.0	1.0	1	0.5	0.5
1599767112.2808313	1599767112.2808313	87.0	1.0	1	0.5	0.5
1599767112.7909935	1599767112.7909935	88.0	2.0	2	0.7071067811865476	0.7071067811865476
1599767113.2824786	1599767113.2824786	89.0	3.0	3	0.8660254037844386	0.8660254037844386
1599767113.7897928	1599767113.7897928	90.0	0.0	0	0	0.5
1599767114.2893038	1599767114.2893038	91.0	1.0	1	0.5	0.5
1599767114.7938604	1599767114.7938604	92.0	0.0	0	0	0.5
1599767115.2926826	1599767115.2926826	93.0	0.0	0	0	0.5
1599767115.803196	1599767115.803196	94.0	2.0	2	0.7071067811865476	0.7071067811865476
1599767116.2959652	1599767116.2959652	95.0	1.0	1	0.5	0.5
1599767116.808915	1599767116.808915	96.0	2.0	2	0.7071067811865476	0.7071067811865476
1599767117.2845538	1599767117.2845538	97.0	1.0	1	0.5	0.5
1599767117.8090456	1599767117.8090456	98.0	0.0	0	0	0.5
1599767118.3108454	1599767118.3108454	99.0	1.0	1	0.5	0.5
1599767118.7988806	1599767118.7988806	100.0	0.0	0	0	0.5
1599767119.2875967	1599767119.2875967	101.0	2.0	2	0.7071067811865476	0.7071067811865476
1599767119.807792	1599767119.807792	102.0	0.0	0	0	0.5
1599767120.2927804	1599767120.2927804	103.0	0.0	0	0	0.5
1599767120.8051245	1599767120.8051245	104.0	1.0	1	0.5	0.5
1599767121.2920778	1599767121.2920778	105.0	0.0	0	0	0.5
1599767121.813498	1599767121.813498	106.0	0.0	0	0	0.5
1599767122.3735487	1599767122.3735487	107.0	0.0	0	0	0.5
1599767122.9418066	1599767122.9418066	108.0	0.0	0	0	0.5
1599767123.4758024	1599767123.4758024	109.0	0.0	0	0	0.5
1599767124.0438814	1599767124.0438814	110.0	0.0	0	0	0.5
1599767124.5837796	1599767124.5837796	111.0	0.0	0	0	0.5
1599767125.1615565	1599767125.1615565	112.0	1.0	1	0.5	0.5
1599767125.6776953	1599767125.6776953	113.0	0.0	0	0	0.5
1599767126.2817194	1599767126.2817194	114.0	1.0	1	0.5	0.5
1599767126.7901647	1599767126.7901647	115.0	0.0	0	0	0.5
1599767127.348855	1599767127.348855	116.0	0.0	0	0	0.5
1599767127.881301	1599767127.881301	117.0	2.0	2	0.7071067811865476	0.7071067811865476
1599767128.4910684	1599767128.4910684	118.0	1.0	1	0.5	0.5
1599767128.9972284	1599767128.9972284	119.0	0.0	0	0	0.5
1599767129.562456	1599767129.562456	120.0	4.0	4	1.0	1.0
1599767130.101675	1599767130.101675	121.0	2.0	2	0.7071067811865476	0.7071067811865476
1599767130.631968	1599767130.631968	122.0	0.0	0	0	0.5
1599767131.2008667	1599767131.2008667	123.0	2.0	2	0.7071067811865476	0.7071067811865476
1599767131.7711742	1599767131.7711742	124.0	3.0	3	0.8660254037844386	0.8660254037844386
1599767132.3093028	1599767132.3093028	125.0	1.0	1	0.5	0.5
1599767132.8058047	1599767132.8058047	126.0	0.0	0	0	0.5
1599767133.305554	1599767133.305554	127.0	1.0	1	0.5	0.5
1599767133.8021648	1599767133.8021648	128.0	0.0	0	0	0.5
1599767134.2899063	1599767134.2899063	129.0	0.0	0	0	0.5
1599767134.8532844	1599767134.8532844	130.0	0.0	0	0	0.5
1599767135.2764666	1599767135.2764666	131.0	0.0	0	0	0.5
1599767135.7961874	1599767135.7961874	132.0	1.0	1	0.5	0.5
1599767136.270141	1599767136.270141	133.0	0.0	0	0	0.5
1599767136.7246928	1599767136.7246928	134.0	2.0	2	0.7071067811865476	0.7071067811865476
1599767137.2629023	1599767137.2629023	135.0	1.0	1	0.5	0.5
1599767137.790913	1599767137.790913	136.0	0.0	0	0	0.5
1599767138.2470884	1599767138.2470884	137.0	0.0	0	0	0.5
1599767138.7507536	1599767138.7507536	138.0	0.0	0	0	0.5
1599767139.238535	1599767139.238535	139.0	1.0	1	0.5	0.5
1599767139.741209	1599767139.741209	140.0	0.0	0	0	0.5
1599767140.22396	1599767140.22396	141.0	0.0	0	0	0.5
1599767140.7207725	1599767140.7207725	142.0	2.0	2	0.7071067811865476	0.7071067811865476
1599767141.2193358	1599767141.2193358	143.0	0.0	0	0	0.5
1599767141.7175343	1599767141.7175343	144.0	1.0	1	0.5	0.5
1599767142.2075903	1599767142.2075903	145.0	0.0	0	0	0.5
1599767142.6620398	1599767142.6620398	146.0	0.0	0	0	0.5
1599767143.1051726	1599767143.1051726	147.0	3.0	3	0.8660254037844386	0.8660254037844386
1599767143.5441468	1599767143.5441468	148.0	2.0	2	0.7071067811865476	0.7071067811865476
1599767144.0144804	1599767144.0144804	149.0	0.0	0	0	0.5
1599767144.4447324	1599767144.4447324	150.0	0.0	0	0	0.5
1599767144.963658	1599767144.963658	151.0	1.0	1	0.5	0.5
1599767145.3441434	1599767145.3441434	152.0	0.0	0	0	0.5
1599767145.7890644	1599767145.7890644	153.0	0.0	0	0	0.5
1599767146.2620897	1599767146.2620897	154.0	0.0	0	0	0.5
1599767146.6775417	1599767146.6775417	155.0	0.0	0	0	0.5
1599767147.128744	1599767147.128744	156.0	2.0	2	0.7071067811865476	0.7071067811865476
1599767147.5593927	1599767147.5593927	157.0	0.0	0	0	0.5
1599767147.9983356	1599767147.9983356	158.0	0.0	0	0	0.5
1599767148.44064	1599767148.44064	159.0	0.0	0	0	0.5
1599767148.9055777	1599767148.9055777	160.0	0.0	0	0	0.5
1599767149.3329573	1599767149.3329573	161.0	1.0	1	0.5	0.5
1599767149.803385	1599767149.803385	162.0	0.0	0	0	0.5
1599767150.2375917	1599767150.2375917	163.0	1.0	1	0.5	0.5
1599767150.6819375	1599767150.6819375	164.0	0.0	0	0	0.5
1599767151.128132	1599767151.128132	165.0	0.0	0	0	0.5
1599767151.613166	1599767151.613166	166.0	0.0	0	0	0.5
1599767152.1037886	1599767152.1037886	167.0	1.0	1	0.5	0.5
1599767152.6198573	1599767152.6198573	168.0	1.0	1	0.5	0.5
1599767153.1144707	1599767153.1144707	169.0	0.0	0	0	0.5
1599767153.614203	1599767153.614203	170.0	2.0	2	0.7071067811865476	0.7071067811865476
1599767154.1225977	1599767154.1225977	171.0	2.0	2	0.7071067811865476	0.7071067811865476
1599767154.6182988	1599767154.6182988	172.0	2.0	2	0.7071067811865476	0.7071067811865476
1599767155.1174958	1599767155.1174958	173.0	1.0	1	0.5	0.5
1599767155.6205804	1599767155.6205804	174.0	1.0	1	0.5	0.5
1599767156.1127222	1599767156.1127222	175.0	2.0	2	0.7071067811865476	0.7071067811865476
1599767156.6450517	1599767156.6450517	176.0	1.0	1	0.5	0.5
1599767157.1418018	1599767157.1418018	177.0	1.0	1	0.5	0.5
1599767157.6386673	1599767157.6386673	178.0	0.0	0	0	0.5
1599767158.1835732	1599767158.1835732	179.0	1.0	1	0.5	0.5
1599767158.6433837	1599767158.6433837	180.0	1.0	1	0.5	0.5
1599767159.135932	1599767159.135932	181.0	1.0	1	0.5	0.5
1599767159.6244388	1599767159.6244388	182.0	1.0	1	0.5	0.5
1599767160.1804035	1599767160.1804035	183.0	1.0	1	0.5	0.5
1599767160.629368	1599767160.629368	184.0	0.0	0	0	0.5
1599767161.168582	1599767161.168582	185.0	0.0	0	0	0.5
1599767161.6011395	1599767161.6011395	186.0	0.0	0	0	0.5
1599767162.0464742	1599767162.0464742	187.0	0.0	0	0	0.5
1599767162.6149678	1599767162.6149678	188.0	0.0	0	0	0.5
1599767162.967129	1599767162.967129	189.0	0.0	0	0	0.5
1599767163.3819213	1599767163.3819213	190.0	0.0	0	0	0.5
1599767163.8424087	1599767163.8424087	191.0	1.0	1	0.5	0.5
1599767164.3030818	1599767164.3030818	192.0	1.0	1	0.5	0.5
1599767164.7274966	1599767164.7274966	193.0	1.0	1	0.5	0.5
1599767165.1880796	1599767165.1880796	194.0	0.0	0	0	0.5
1599767165.6374643	1599767165.6374643	195.0	2.0	2	0.7071067811865476	0.7071067811865476
1599767166.07016	1599767166.07016	196.0	2.0	2	0.7071067811865476	0.7071067811865476
1599767166.540223	1599767166.540223	197.0	2.0	2	0.7071067811865476	0.7071067811865476
1599767166.98763	1599767166.98763	198.0	0.0	0	0	0.5
1599767167.437542	1599767167.437542	199.0	0.0	0	0	0.5
1599767167.9039423	1599767167.9039423	200.0	1.0	1	0.5	0.5
1599767168.3370075	1599767168.3370075	201.0	3.0	3	0.8660254037844386	0.8660254037844386
1599767168.883453	1599767168.883453	202.0	2.0	2	0.7071067811865476	0.7071067811865476
1599767169.2452962	1599767169.2452962	203.0	4.0	4	1.0	1.0
1599767169.691633	1599767169.691633	204.0	1.0	1	0.5	0.5
1599767170.1380672	1599767170.1380672	205.0	0.0	0	0	0.5
1599767170.7760348	1599767170.7760348	206.0	2.0	2	0.7071067811865476	0.7071067811865476
1599767171.101246	1599767171.101246	207.0	1.0	1	0.5	0.5
1599767171.6367595	1599767171.6367595	208.0	2.0	2	0.7071067811865476	0.7071067811865476
1599767172.1392298	1599767172.1392298	209.0	4.0	4	1.0	1.0
1599767172.6615145	1599767172.6615145	210.0	2.0	2	0.7071067811865476	0.7071067811865476
1599767173.1706793	1599767173.1706793	211.0	3.0	3	0.8660254037844386	0.8660254037844386
1599767173.6361077	1599767173.6361077	212.0	0.0	0	0	0.5
1599767174.1452236	1599767174.1452236	213.0	2.0	2	0.7071067811865476	0.7071067811865476
1599767174.735863	1599767174.735863	214.0	2.0	2	0.7071067811865476	0.7071067811865476
1599767175.2062488	1599767175.2062488	215.0	1.0	1	0.5	0.5
1599767175.831324	1599767175.831324	216.0	0.0	0	0	0.5
1599767176.1674535	1599767176.1674535	217.0	0.0	0	0	0.5
1599767177.1895611	1599767177.1895611	218.0	1.0	1	0.5	0.5
1599767177.5371044	1599767177.5371044	219.0	1.0	1	0.5	0.5
1599767177.887876	1599767177.887876	220.0	0.0	0	0	0.5
1599767178.4596004	1599767178.4596004	221.0	0.0	0	0	0.5
1599767178.660448	1599767178.660448	222.0	0.0	0	0	0.5
1599767179.1001825	1599767179.1001825	223.0	0.0	0	0	0.5
1599767179.6395035	1599767179.6395035	224.0	1.0	1	0.5	0.5
1599767180.1132808	1599767180.1132808	225.0	1.0	1	0.5	0.5
1599767180.6227627	1599767180.6227627	226.0	1.0	1	0.5	0.5
1599767181.0419707	1599767181.0419707	227.0	2.0	2	0.7071067811865476	0.7071067811865476
1599767181.5087337	1599767181.5087337	228.0	0.0	0	0	0.5
1599767181.9416103	1599767181.9416103	229.0	2.0	2	0.7071067811865476	0.7071067811865476
1599767182.4064946	1599767182.4064946	230.0	1.0	1	0.5	0.5
1599767182.8400764	1599767182.8400764	231.0	0.0	0	0	0.5
1599767183.2963948	1599767183.2963948	232.0	2.0	2	0.7071067811865476	0.7071067811865476
1599767183.7427459	1599767183.7427459	233.0	0.0	0	0	0.5
1599767184.1927624	1599767184.1927624	234.0	0.0	0	0	0.5
1599767184.641563	1599767184.641563	235.0	1.0	1	0.5	0.5
1599767185.0803587	1599767185.0803587	236.0	0.0	0	0	0.5
1599767185.5415814	1599767185.5415814	237.0	1.0	1	0.5	0.5
1599767185.9835062	1599767185.9835062	238.0	0.0	0	0	0.5
1599767186.479412	1599767186.479412	239.0	0.0	0	0	0.5
1599767186.9080262	1599767186.9080262	240.0	1.0	1	0.5	0.5