# <?xml version="1.0" ?>
# <DataFileHeader>
#   <Variables>
#     <Element name="PulseProgram" type="dict">
#       <Element name="PulseProgram" type="str">C:/Users/ions/Documents/IonControl/project_dir/QuditLab/config/PulseProgramsPlus/Ablation_NeutralFluorescence.ppp</Element>
#       <Element name="NULL" type="Quantity">0</Element>
#       <Element name="FFFFFFFF" type="Quantity">18446744073709551615</Element>
#       <Element name="INTERRUPT_EXITCODE" type="Quantity">18446198715942174720</Element>
#       <Element name="InitializationShutter" type="int">4632</Element>
#       <Element name="NaturalAblation_mask" type="int">256</Element>
#       <Element name="NaturalAblation" type="int">256</Element>
#       <Element name="EndShutter" type="int">4632</Element>
#       <Element name="ShutterDelayTime" type="Quantity">0.5 s</Element>
#       <Element name="WindowStartTime" type="Quantity">141 us</Element>
#       <Element name="DetectTime" type="Quantity">20 us</Element>
#       <Element name="DummyVar" type="int">0</Element>
#       <Element name="experiments" type="int">1</Element>
#       <Element name="DetectCounters" type="int">1</Element>
#       <Element name="endLabel" type="Quantity">18446744073709551615</Element>
#       <Element name="experimentsleft" type="Quantity">100</Element>
#       <Element name="currentexperiment" type="Quantity">0</Element>
#       <Element name="inlinevar_1" type="Quantity">1</Element>
#     </Element>
#     <Element name="Scan" type="dict">
#       <Element name="scanParameter" type="str">DummyVar</Element>
#       <Element name="scanTarget" type="str">Internal</Element>
#       <Element name="scantype" type="int">0</Element>
#       <Element name="scanMode" type="int">0</Element>
#       <Element name="xUnit" type="str"></Element>
#       <Element name="xExpression" type="str"></Element>
#       <Element name="loadPP" type="bool">True</Element>
#       <Element name="loadPPName" type="str">Ablation_IonFluorescence_Nat.ppp</Element>
#       <Element name="parallelInternalScanParameter" type="str">None</Element>
#     </Element>
#     <ColumnSpec>timeTickFirst, timeTickLast, x, PMT Count, PMT Count_raw, PMT Count_bottom, PMT Count_top</ColumnSpec>
#     <Element name="comment" type="str"></Element>
#     <Element name="lastDataAquired" type="datetime">2020-09-10 20:27:38.536543+00:00</Element>
#     <Element name="name" type="str"></Element>
#     <Element name="traceCreation" type="datetime">2020-09-10 20:25:40.835364+00:00</Element>
#     <Element name="traceFinalized" type="datetime">2020-09-10 20:27:38.539832+00:00</Element>
#     <TracePlottingList>
#       <TracePlotting _bottomColumn="PMT Count_bottom" _filtColumn="None" _fitFunction="None" _heightColumn="height" _rawColumn="PMT Count_raw" _topColumn="PMT Count_top" _xColumn="x" _yColumn="PMT Count" fill="True" name="PMT Count" properties="&lt;trace.PlottedTrace.PlottedTraceProperties object at 0x000002A983D3F208&gt;" style="0" type="0" windowName="Scan Data" xAxisLabel="DummyVar" xAxisUnit="" yAxisLabel="None">
#         <PlottedTraceProperties averageSameX="False" averageType="0" combinePoints="0"/>
#       </TracePlotting>
#     </TracePlottingList>
#   </Variables>
# </DataFileHeader>
1599769539.8975456	1599769539.8975456	1.0	2.0	2	0.7071067811865476	0.7071067811865476
1599769540.832419	1599769540.832419	2.0	1.0	1	0.5	0.5
1599769541.250276	1599769541.250276	3.0	0.0	0	0	0.5
1599769541.7136793	1599769541.7136793	4.0	0.0	0	0	0.5
1599769542.127271	1599769542.127271	5.0	0.0	0	0	0.5
1599769542.5649111	1599769542.5649111	6.0	1.0	1	0.5	0.5
1599769543.0037305	1599769543.0037305	7.0	1.0	1	0.5	0.5
1599769543.4458003	1599769543.4458003	8.0	0.0	0	0	0.5
1599769543.8866923	1599769543.8866923	9.0	0.0	0	0	0.5
1599769544.338677	1599769544.338677	10.0	0.0	0	0	0.5
1599769544.7723215	1599769544.7723215	11.0	0.0	0	0	0.5
1599769545.2294097	1599769545.2294097	12.0	1.0	1	0.5	0.5
1599769545.650462	1599769545.650462	13.0	1.0	1	0.5	0.5
1599769546.5139482	1599769546.5139482	14.0	0.0	0	0	0.5
1599769546.5682867	1599769546.5682867	15.0	0.0	0	0	0.5
1599769546.988401	1599769546.988401	16.0	0.0	0	0	0.5
1599769547.4312222	1599769547.4312222	17.0	1.0	1	0.5	0.5
1599769547.9316413	1599769547.9316413	18.0	0.0	0	0	0.5
1599769548.3948517	1599769548.3948517	19.0	1.0	1	0.5	0.5
1599769548.9044342	1599769548.9044342	20.0	0.0	0	0	0.5
1599769549.3636475	1599769549.3636475	21.0	0.0	0	0	0.5
1599769549.8569496	1599769549.8569496	22.0	1.0	1	0.5	0.5
1599769550.3407333	1599769550.3407333	23.0	0.0	0	0	0.5
1599769550.8437765	1599769550.8437765	24.0	0.0	0	0	0.5
1599769551.3158972	1599769551.3158972	25.0	0.0	0	0	0.5
1599769551.8100064	1599769551.8100064	26.0	1.0	1	0.5	0.5
1599769552.2783356	1599769552.2783356	27.0	0.0	0	0	0.5
1599769552.7592227	1599769552.7592227	28.0	1.0	1	0.5	0.5
1599769553.2553432	1599769553.2553432	29.0	1.0	1	0.5	0.5
1599769553.7491968	1599769553.7491968	30.0	0.0	0	0	0.5
1599769554.2294846	1599769554.2294846	31.0	0.0	0	0	0.5
1599769554.7259102	1599769554.7259102	32.0	1.0	1	0.5	0.5
1599769555.1925085	1599769555.1925085	33.0	0.0	0	0	0.5
1599769555.6867812	1599769555.6867812	34.0	1.0	1	0.5	0.5
1599769556.1597955	1599769556.1597955	35.0	0.0	0	0	0.5
1599769556.64807	1599769556.64807	36.0	0.0	0	0	0.5
1599769557.14359	1599769557.14359	37.0	0.0	0	0	0.5
1599769557.6710868	1599769557.6710868	38.0	0.0	0	0	0.5
1599769558.2112215	1599769558.2112215	39.0	0.0	0	0	0.5
1599769558.7613788	1599769558.7613788	40.0	1.0	1	0.5	0.5
1599769559.2753742	1599769559.2753742	41.0	0.0	0	0	0.5
1599769559.8246753	1599769559.8246753	42.0	1.0	1	0.5	0.5
1599769560.3409564	1599769560.3409564	43.0	0.0	0	0	0.5
1599769560.8885791	1599769560.8885791	44.0	0.0	0	0	0.5
1599769561.506647	1599769561.506647	45.0	0.0	0	0	0.5
1599769561.951721	1599769561.951721	46.0	0.0	0	0	0.5
1599769562.4801173	1599769562.4801173	47.0	0.0	0	0	0.5
1599769563.0275357	1599769563.0275357	48.0	0.0	0	0	0.5
1599769563.5446498	1599769563.5446498	49.0	0.0	0	0	0.5
1599769564.1019318	1599769564.1019318	50.0	0.0	0	0	0.5
1599769564.7110324	1599769564.7110324	51.0	1.0	1	0.5	0.5
1599769565.1574948	1599769565.1574948	52.0	0.0	0	0	0.5
1599769565.693415	1599769565.693415	53.0	0.0	0	0	0.5
1599769566.2219162	1599769566.2219162	54.0	0.0	0	0	0.5
1599769566.7500324	1599769566.7500324	55.0	0.0	0	0	0.5
1599769567.2822833	1599769567.2822833	56.0	1.0	1	0.5	0.5
1599769567.839839	1599769567.839839	57.0	0.0	0	0	0.5
1599769568.4749098	1599769568.4749098	58.0	0.0	0	0	0.5
1599769569.0002785	1599769569.0002785	59.0	0.0	0	0	0.5
1599769569.5932245	1599769569.5932245	60.0	0.0	0	0	0.5
1599769570.1814332	1599769570.1814332	61.0	0.0	0	0	0.5
1599769570.78313	1599769570.78313	62.0	0.0	0	0	0.5
1599769571.3526978	1599769571.3526978	63.0	1.0	1	0.5	0.5
1599769571.9566576	1599769571.9566576	64.0	0.0	0	0	0.5
1599769572.5400243	1599769572.5400243	65.0	0.0	0	0	0.5
1599769573.1298823	1599769573.1298823	66.0	0.0	0	0	0.5
1599769573.7019527	1599769573.7019527	67.0	0.0	0	0	0.5
1599769574.301138	1599769574.301138	68.0	1.0	1	0.5	0.5
1599769574.8743658	1599769574.8743658	69.0	0.0	0	0	0.5
1599769575.4759154	1599769575.4759154	70.0	0.0	0	0	0.5
1599769576.0466404	1599769576.0466404	71.0	0.0	0	0	0.5
1599769576.6469214	1599769576.6469214	72.0	2.0	2	0.7071067811865476	0.7071067811865476
1599769577.2227862	1599769577.2227862	73.0	0.0	0	0	0.5
1599769577.8206959	1599769577.8206959	74.0	0.0	0	0	0.5
1599769578.4095888	1599769578.4095888	75.0	2.0	2	0.7071067811865476	0.7071067811865476
1599769578.9961624	1599769578.9961624	76.0	1.0	1	0.5	0.5
1599769579.5486434	1599769579.5486434	77.0	0.0	0	0	0.5
1599769580.0587747	1599769580.0587747	78.0	2.0	2	0.7071067811865476	0.7071067811865476
1599769580.54967	1599769580.54967	79.0	0.0	0	0	0.5
1599769581.0952663	1599769581.0952663	80.0	0.0	0	0	0.5
1599769581.5632622	1599769581.5632622	81.0	0.0	0	0	0.5
1599769582.073344	1599769582.073344	82.0	0.0	0	0	0.5
1599769582.5639038	1599769582.5639038	83.0	0.0	0	0	0.5
1599769583.054546	1599769583.054546	84.0	2.0	2	0.7071067811865476	0.7071067811865476
1599769583.562072	1599769583.562072	85.0	1.0	1	0.5	0.5
1599769584.075235	1599769584.075235	86.0	1.0	1	0.5	0.5
1599769584.5578613	1599769584.5578613	87.0	0.0	0	0	0.5
1599769585.063458	1599769585.063458	88.0	0.0	0	0	0.5
1599769585.5507565	1599769585.5507565	89.0	1.0	1	0.5	0.5
1599769586.0749478	1599769586.0749478	90.0	0.0	0	0	0.5
1599769586.5514822	1599769586.5514822	91.0	0.0	0	0	0.5
1599769587.0630033	1599769587.0630033	92.0	0.0	0	0	0.5
1599769587.5638149	1599769587.5638149	93.0	1.0	1	0.5	0.5
1599769588.0538626	1599769588.0538626	94.0	1.0	1	0.5	0.5
1599769588.5628653	1599769588.5628653	95.0	0.0	0	0	0.5
1599769589.074214	1599769589.074214	96.0	0.0	0	0	0.5
1599769589.5784738	1599769589.5784738	97.0	0.0	0	0	0.5
1599769590.1373837	1599769590.1373837	98.0	1.0	1	0.5	0.5
1599769590.670412	1599769590.670412	99.0	1.0	1	0.5	0.5
1599769591.2287126	1599769591.2287126	100.0	0.0	0	0	0.5
1599769591.780833	1599769591.780833	101.0	0.0	0	0	0.5
1599769592.3303783	1599769592.3303783	102.0	1.0	1	0.5	0.5
1599769592.8829138	1599769592.8829138	103.0	0.0	0	0	0.5
1599769593.4294753	1599769593.4294753	104.0	2.0	2	0.7071067811865476	0.7071067811865476
1599769593.9876473	1599769593.9876473	105.0	0.0	0	0	0.5
1599769594.5299714	1599769594.5299714	106.0	0.0	0	0	0.5
1599769595.0791795	1599769595.0791795	107.0	1.0	1	0.5	0.5
1599769595.6288507	1599769595.6288507	108.0	0.0	0	0	0.5
1599769596.1749325	1599769596.1749325	109.0	0.0	0	0	0.5
1599769596.719306	1599769596.719306	110.0	1.0	1	0.5	0.5
1599769597.2761	1599769597.2761	111.0	0.0	0	0	0.5
1599769597.8333333	1599769597.8333333	112.0	0.0	0	0	0.5
1599769598.3799593	1599769598.3799593	113.0	2.0	2	0.7071067811865476	0.7071067811865476
1599769598.924559	1599769598.924559	114.0	1.0	1	0.5	0.5
1599769599.4846013	1599769599.4846013	115.0	0.0	0	0	0.5
1599769600.029761	1599769600.029761	116.0	1.0	1	0.5	0.5
1599769600.5556622	1599769600.5556622	117.0	0.0	0	0	0.5
1599769601.062159	1599769601.062159	118.0	1.0	1	0.5	0.5
1599769601.5957923	1599769601.5957923	119.0	0.0	0	0	0.5
1599769602.08806	1599769602.08806	120.0	0.0	0	0	0.5
1599769602.574955	1599769602.574955	121.0	2.0	2	0.7071067811865476	0.7071067811865476
1599769603.0940733	1599769603.0940733	122.0	0.0	0	0	0.5
1599769603.563479	1599769603.563479	123.0	0.0	0	0	0.5
1599769604.0765975	1599769604.0765975	124.0	0.0	0	0	0.5
1599769604.562315	1599769604.562315	125.0	1.0	1	0.5	0.5
1599769605.0662477	1599769605.0662477	126.0	0.0	0	0	0.5
1599769605.5690784	1599769605.5690784	127.0	1.0	1	0.5	0.5
1599769606.0919068	1599769606.0919068	128.0	0.0	0	0	0.5
1599769606.557117	1599769606.557117	129.0	0.0	0	0	0.5
1599769607.0877	1599769607.0877	130.0	1.0	1	0.5	0.5
1599769607.5645788	1599769607.5645788	131.0	0.0	0	0	0.5
1599769608.0913374	1599769608.0913374	132.0	0.0	0	0	0.5
1599769608.5712636	1599769608.5712636	133.0	0.0	0	0	0.5
1599769609.0628936	1599769609.0628936	134.0	1.0	1	0.5	0.5
1599769609.5611134	1599769609.5611134	135.0	0.0	0	0	0.5
1599769610.0870855	1599769610.0870855	136.0	0.0	0	0	0.5
1599769610.8559098	1599769610.8559098	137.0	0.0	0	0	0.5
1599769611.3250105	1599769611.3250105	138.0	0.0	0	0	0.5
1599769611.5923743	1599769611.5923743	139.0	0.0	0	0	0.5
1599769612.1232736	1599769612.1232736	140.0	0.0	0	0	0.5
1599769612.7675943	1599769612.7675943	141.0	1.0	1	0.5	0.5
1599769613.0917258	1599769613.0917258	142.0	0.0	0	0	0.5
1599769613.5761166	1599769613.5761166	143.0	2.0	2	0.7071067811865476	0.7071067811865476
1599769614.0890317	1599769614.0890317	144.0	0.0	0	0	0.5
1599769614.5613244	1599769614.5613244	145.0	0.0	0	0	0.5
1599769615.0876718	1599769615.0876718	146.0	0.0	0	0	0.5
1599769615.5727773	1599769615.5727773	147.0	0.0	0	0	0.5
1599769616.077989	1599769616.077989	148.0	0.0	0	0	0.5
1599769616.560335	1599769616.560335	149.0	0.0	0	0	0.5
1599769617.0957222	1599769617.0957222	150.0	0.0	0	0	0.5
1599769617.5645955	1599769617.5645955	151.0	1.0	1	0.5	0.5
1599769618.1979153	1599769618.1979153	152.0	0.0	0	0	0.5
1599769618.5736778	1599769618.5736778	153.0	0.0	0	0	0.5
1599769619.0873547	1599769619.0873547	154.0	0.0	0	0	0.5
1599769619.572404	1599769619.572404	155.0	0.0	0	0	0.5
1599769620.2075438	1599769620.2075438	156.0	1.0	1	0.5	0.5
1599769620.5607274	1599769620.5607274	157.0	1.0	1	0.5	0.5
1599769621.0961444	1599769621.0961444	158.0	1.0	1	0.5	0.5
1599769621.5790753	1599769621.5790753	159.0	0.0	0	0	0.5
1599769622.0737407	1599769622.0737407	160.0	0.0	0	0	0.5
1599769622.5724897	1599769622.5724897	161.0	0.0	0	0	0.5
1599769623.1742258	1599769623.1742258	162.0	2.0	2	0.7071067811865476	0.7071067811865476
1599769623.5766866	1599769623.5766866	163.0	1.0	1	0.5	0.5
1599769624.0846527	1599769624.0846527	164.0	0.0	0	0	0.5
1599769624.5751858	1599769624.5751858	165.0	1.0	1	0.5	0.5
1599769625.0902698	1599769625.0902698	166.0	0.0	0	0	0.5
1599769625.5647883	1599769625.5647883	167.0	0.0	0	0	0.5
1599769626.0873723	1599769626.0873723	168.0	1.0	1	0.5	0.5
1599769626.591262	1599769626.591262	169.0	0.0	0	0	0.5
1599769627.075311	1599769627.075311	170.0	0.0	0	0	0.5
1599769627.5677538	1599769627.5677538	171.0	1.0	1	0.5	0.5
1599769628.0896387	1599769628.0896387	172.0	0.0	0	0	0.5
1599769628.5760477	1599769628.5760477	173.0	1.0	1	0.5	0.5
1599769629.1079583	1599769629.1079583	174.0	0.0	0	0	0.5
1599769629.6589105	1599769629.6589105	175.0	0.0	0	0	0.5
1599769630.1495657	1599769630.1495657	176.0	0.0	0	0	0.5
1599769630.6201618	1599769630.6201618	177.0	1.0	1	0.5	0.5
1599769631.1167946	1599769631.1167946	178.0	0.0	0	0	0.5
1599769631.5341158	1599769631.5341158	179.0	0.0	0	0	0.5
1599769631.9867153	1599769631.9867153	180.0	0.0	0	0	0.5
1599769632.4084277	1599769632.4084277	181.0	2.0	2	0.7071067811865476	0.7071067811865476
1599769632.8544724	1599769632.8544724	182.0	0.0	0	0	0.5
1599769633.2776	1599769633.2776	183.0	0.0	0	0	0.5
1599769633.7564838	1599769633.7564838	184.0	1.0	1	0.5	0.5
1599769634.179777	1599769634.179777	185.0	1.0	1	0.5	0.5
1599769634.6493406	1599769634.6493406	186.0	0.0	0	0	0.5
1599769635.1918097	1599769635.1918097	187.0	1.0	1	0.5	0.5
1599769635.5875955	1599769635.5875955	188.0	0.0	0	0	0.5
1599769636.102905	1599769636.102905	189.0	0.0	0	0	0.5
1599769636.4528894	1599769636.4528894	190.0	2.0	2	0.7071067811865476	0.7071067811865476
1599769637.0477386	1599769637.0477386	191.0	0.0	0	0	0.5
1599769637.3327925	1599769637.3327925	192.0	2.0	2	0.7071067811865476	0.7071067811865476
1599769637.806541	1599769637.806541	193.0	0.0	0	0	0.5
1599769638.255097	1599769638.255097	194.0	1.0	1	0.5	0.5
1599769638.6912613	1599769638.6912613	195.0	0.0	0	0	0.5
1599769639.16021	1599769639.16021	196.0	0.0	0	0	0.5
1599769639.6266942	1599769639.6266942	197.0	1.0	1	0.5	0.5
1599769640.0329778	1599769640.0329778	198.0	0.0	0	0	0.5
1599769640.416147	1599769640.416147	199.0	0.0	0	0	0.5
1599769640.8310099	1599769640.8310099	200.0	1.0	1	0.5	0.5
1599769641.2324922	1599769641.2324922	201.0	0.0	0	0	0.5
1599769641.746559	1599769641.746559	202.0	0.0	0	0	0.5
1599769642.3632064	1599769642.3632064	203.0	0.0	0	0	0.5
1599769642.552915	1599769642.552915	204.0	0.0	0	0	0.5
1599769642.8616583	1599769642.8616583	205.0	0.0	0	0	0.5
1599769643.6386342	1599769643.6386342	206.0	0.0	0	0	0.5
1599769644.1599977	1599769644.1599977	207.0	0.0	0	0	0.5
1599769644.311876	1599769644.311876	208.0	0.0	0	0	0.5
1599769644.7135608	1599769644.7135608	209.0	0.0	0	0	0.5
1599769645.0770943	1599769645.0770943	210.0	0.0	0	0	0.5
1599769645.5243735	1599769645.5243735	211.0	0.0	0	0	0.5
1599769645.9268382	1599769645.9268382	212.0	0.0	0	0	0.5
1599769646.1078677	1599769646.1078677	213.0	0.0	0	0	0.5
1599769646.5069807	1599769646.5069807	214.0	0.0	0	0	0.5
1599769646.9298599	1599769646.9298599	215.0	0.0	0	0	0.5
1599769647.3105128	1599769647.3105128	216.0	1.0	1	0.5	0.5
1599769647.6926348	1599769647.6926348	217.0	1.0	1	0.5	0.5
1599769648.145045	1599769648.145045	218.0	0.0	0	0	0.5
1599769648.5715723	1599769648.5715723	219.0	0.0	0	0	0.5
1599769649.0252755	1599769649.0252755	220.0	0.0	0	0	0.5
1599769649.4689572	1599769649.4689572	221.0	2.0	2	0.7071067811865476	0.7071067811865476
1599769649.905969	1599769649.905969	222.0	0.0	0	0	0.5
1599769650.4130654	1599769650.4130654	223.0	0.0	0	0	0.5
1599769650.8329642	1599769650.8329642	224.0	0.0	0	0	0.5
1599769651.254473	1599769651.254473	225.0	2.0	2	0.7071067811865476	0.7071067811865476
1599769651.710113	1599769651.710113	226.0	0.0	0	0	0.5
1599769652.222487	1599769652.222487	227.0	0.0	0	0	0.5
1599769652.6253507	1599769652.6253507	228.0	0.0	0	0	0.5
1599769653.0303612	1599769653.0303612	229.0	1.0	1	0.5	0.5
1599769653.467856	1599769653.467856	230.0	0.0	0	0	0.5
1599769653.9128811	1599769653.9128811	231.0	1.0	1	0.5	0.5
1599769654.3729	1599769654.3729	232.0	0.0	0	0	0.5
1599769654.8048327	1599769654.8048327	233.0	0.0	0	0	0.5
1599769655.2505298	1599769655.2505298	234.0	1.0	1	0.5	0.5
1599769655.6859477	1599769655.6859477	235.0	0.0	0	0	0.5
1599769656.1607254	1599769656.1607254	236.0	0.0	0	0	0.5
1599769656.5836256	1599769656.5836256	237.0	1.0	1	0.5	0.5
1599769657.0899231	1599769657.0899231	238.0	0.0	0	0	0.5
1599769657.5575943	1599769657.5575943	239.0	0.0	0	0	0.5
1599769658.083371	1599769658.083371	240.0	1.0	1	0.5	0.5