# <?xml version="1.0" ?>
# <DataFileHeader>
#   <Variables>
#     <Element name="PulseProgram" type="dict">
#       <Element name="PulseProgram" type="str">C:/Users/ions/Documents/IonControl/project_dir/QuditLab/config/PulseProgramsPlus/Ablation_NeutralFluorescence.ppp</Element>
#       <Element name="NULL" type="Quantity">0</Element>
#       <Element name="FFFFFFFF" type="Quantity">18446744073709551615</Element>
#       <Element name="INTERRUPT_EXITCODE" type="Quantity">18446198715942174720</Element>
#       <Element name="InitializationShutter" type="int">4610</Element>
#       <Element name="NaturalAblation_mask" type="int">256</Element>
#       <Element name="NaturalAblation" type="int">256</Element>
#       <Element name="EndShutter" type="int">4610</Element>
#       <Element name="ShutterDelayTime" type="Quantity">0.5 s</Element>
#       <Element name="WindowStartTime" type="Quantity">145 us</Element>
#       <Element name="DetectTime" type="Quantity">20 us</Element>
#       <Element name="DummyVar" type="int">0</Element>
#       <Element name="experiments" type="int">1</Element>
#       <Element name="DetectCounters" type="int">1</Element>
#       <Element name="endLabel" type="Quantity">18446744073709551615</Element>
#       <Element name="experimentsleft" type="Quantity">100</Element>
#       <Element name="currentexperiment" type="Quantity">0</Element>
#       <Element name="inlinevar_1" type="Quantity">1</Element>
#     </Element>
#     <Element name="Scan" type="dict">
#       <Element name="scanParameter" type="str">DummyVar</Element>
#       <Element name="scanTarget" type="str">Internal</Element>
#       <Element name="scantype" type="int">0</Element>
#       <Element name="scanMode" type="int">0</Element>
#       <Element name="xUnit" type="str"></Element>
#       <Element name="xExpression" type="str"></Element>
#       <Element name="loadPP" type="bool">True</Element>
#       <Element name="loadPPName" type="str">Ablation_NeutralFluorescence_Nat.ppp</Element>
#       <Element name="parallelInternalScanParameter" type="str">None</Element>
#     </Element>
#     <ColumnSpec>timeTickFirst, timeTickLast, x, PMT Count, PMT Count_raw, PMT Count_bottom, PMT Count_top</ColumnSpec>
#     <Element name="comment" type="str"></Element>
#     <Element name="lastDataAquired" type="datetime">2020-09-10 18:40:55.496616+00:00</Element>
#     <Element name="name" type="str"></Element>
#     <Element name="traceCreation" type="datetime">2020-09-10 18:38:59.425957+00:00</Element>
#     <Element name="traceFinalized" type="datetime">2020-09-10 18:46:24.427061+00:00</Element>
#     <TracePlottingList>
#       <TracePlotting _bottomColumn="PMT Count_bottom" _filtColumn="None" _fitFunction="None" _heightColumn="height" _rawColumn="PMT Count_raw" _topColumn="PMT Count_top" _xColumn="x" _yColumn="PMT Count" fill="True" name="PMT Count" properties="&lt;trace.PlottedTrace.PlottedTraceProperties object at 0x000002A987EF8860&gt;" style="0" type="0" windowName="Scan Data" xAxisLabel="DummyVar" xAxisUnit="" yAxisLabel="None">
#         <PlottedTraceProperties averageSameX="False" averageType="0" combinePoints="0"/>
#       </TracePlotting>
#     </TracePlottingList>
#   </Variables>
# </DataFileHeader>
1599763138.272744	1599763138.272744	1.0	21.0	21	2.29128784747792	2.29128784747792
1599763139.402702	1599763139.402702	1.0376569037656904	5.0	5	1.118033988749895	1.118033988749895
1599763140.128619	1599763140.128619	1.0753138075313808	3.0	3	0.8660254037844386	0.8660254037844386
1599763140.5462613	1599763140.5462613	1.112970711297071	8.0	8	1.4142135623730951	1.4142135623730951
1599763141.0769377	1599763141.0769377	1.1506276150627615	4.0	4	1.0	1.0
1599763141.5997179	1599763141.5997179	1.1882845188284519	5.0	5	1.118033988749895	1.118033988749895
1599763142.1747437	1599763142.1747437	1.2259414225941423	0.0	0	0	0.5
1599763142.7384255	1599763142.7384255	1.2635983263598327	4.0	4	1.0	1.0
1599763143.257214	1599763143.257214	1.301255230125523	1.0	1	0.5	0.5
1599763143.8449652	1599763143.8449652	1.3389121338912133	1.0	1	0.5	0.5
1599763144.3682961	1599763144.3682961	1.3765690376569037	3.0	3	0.8660254037844386	0.8660254037844386
1599763144.9032524	1599763144.9032524	1.4142259414225942	1.0	1	0.5	0.5
1599763145.4506931	1599763145.4506931	1.4518828451882846	2.0	2	0.7071067811865476	0.7071067811865476
1599763145.9276206	1599763145.9276206	1.489539748953975	4.0	4	1.0	1.0
1599763146.4096599	1599763146.4096599	1.5271966527196654	2.0	2	0.7071067811865476	0.7071067811865476
1599763146.9428873	1599763146.9428873	1.5648535564853556	1.0	1	0.5	0.5
1599763147.4248009	1599763147.4248009	1.602510460251046	1.0	1	0.5	0.5
1599763147.9044185	1599763147.9044185	1.6401673640167365	1.0	1	0.5	0.5
1599763148.421931	1599763148.421931	1.6778242677824267	2.0	2	0.7071067811865476	0.7071067811865476
1599763148.889187	1599763148.889187	1.715481171548117	1.0	1	0.5	0.5
1599763149.4117672	1599763149.4117672	1.7531380753138075	0.0	0	0	0.5
1599763149.9098532	1599763149.9098532	1.790794979079498	1.0	1	0.5	0.5
1599763150.3988194	1599763150.3988194	1.8284518828451883	2.0	2	0.7071067811865476	0.7071067811865476
1599763150.9155736	1599763150.9155736	1.8661087866108788	4.0	4	1.0	1.0
1599763151.3881285	1599763151.3881285	1.9037656903765692	0.0	0	0	0.5
1599763151.8916593	1599763151.8916593	1.9414225941422596	0.0	0	0	0.5
1599763152.3529034	1599763152.3529034	1.9790794979079498	1.0	1	0.5	0.5
1599763152.851678	1599763152.851678	2.01673640167364	2.0	2	0.7071067811865476	0.7071067811865476
1599763153.3403785	1599763153.3403785	2.054393305439331	3.0	3	0.8660254037844386	0.8660254037844386
1599763153.996507	1599763153.996507	2.092050209205021	0.0	0	0	0.5
1599763154.3649983	1599763154.3649983	2.1297071129707112	2.0	2	0.7071067811865476	0.7071067811865476
1599763155.0044076	1599763155.0044076	2.1673640167364017	7.0	7	1.3228756555322954	1.3228756555322954
1599763155.3368797	1599763155.3368797	2.205020920502092	1.0	1	0.5	0.5
1599763155.7954247	1599763155.7954247	2.2426778242677825	0.0	0	0	0.5
1599763156.192868	1599763156.192868	2.280334728033473	3.0	3	0.8660254037844386	0.8660254037844386
1599763156.67447	1599763156.67447	2.3179916317991633	1.0	1	0.5	0.5
1599763157.1206765	1599763157.1206765	2.3556485355648533	1.0	1	0.5	0.5
1599763157.558455	1599763157.558455	2.393305439330544	2.0	2	0.7071067811865476	0.7071067811865476
1599763157.9780407	1599763157.9780407	2.430962343096234	4.0	4	1.0	1.0
1599763158.4238126	1599763158.4238126	2.468619246861925	1.0	1	0.5	0.5
1599763158.893822	1599763158.893822	2.506276150627615	3.0	3	0.8660254037844386	0.8660254037844386
1599763159.3852012	1599763159.3852012	2.5439330543933054	6.0	6	1.224744871391589	1.224744871391589
1599763159.8755054	1599763159.8755054	2.581589958158996	0.0	0	0	0.5
1599763160.2594767	1599763160.2594767	2.6192468619246863	16.0	16	2.0	2.0
1599763160.6992474	1599763160.6992474	2.6569037656903767	4.0	4	1.0	1.0
1599763161.1622236	1599763161.1622236	2.694560669456067	2.0	2	0.7071067811865476	0.7071067811865476
1599763161.5755749	1599763161.5755749	2.7322175732217575	5.0	5	1.118033988749895	1.118033988749895
1599763161.9948697	1599763161.9948697	2.7698744769874475	4.0	4	1.0	1.0
1599763162.4436278	1599763162.4436278	2.8075313807531384	4.0	4	1.0	1.0
1599763162.9437284	1599763162.9437284	2.8451882845188283	1.0	1	0.5	0.5
1599763163.6463575	1599763163.6463575	2.882845188284519	8.0	8	1.4142135623730951	1.4142135623730951
1599763163.782817	1599763163.782817	2.920502092050209	1.0	1	0.5	0.5
1599763164.2889717	1599763164.2889717	2.9581589958158996	4.0	4	1.0	1.0
1599763164.7948594	1599763164.7948594	2.99581589958159	0.0	0	0	0.5
1599763165.2647498	1599763165.2647498	3.0334728033472804	0.0	0	0	0.5
1599763165.758674	1599763165.758674	3.071129707112971	0.0	0	0	0.5
1599763166.2496586	1599763166.2496586	3.1087866108786613	1.0	1	0.5	0.5
1599763166.6829212	1599763166.6829212	3.1464435146443517	4.0	4	1.0	1.0
1599763167.2372942	1599763167.2372942	3.184100418410042	1.0	1	0.5	0.5
1599763167.6705973	1599763167.6705973	3.221757322175732	5.0	5	1.118033988749895	1.118033988749895
1599763168.2135324	1599763168.2135324	3.2594142259414225	5.0	5	1.118033988749895	1.118033988749895
1599763168.7179346	1599763168.7179346	3.297071129707113	7.0	7	1.3228756555322954	1.3228756555322954
1599763169.1888573	1599763169.1888573	3.3347280334728033	18.0	18	2.1213203435596424	2.1213203435596424
1599763169.6810586	1599763169.6810586	3.3723849372384938	31.0	31	2.7838821814150108	2.7838821814150108
1599763170.244558	1599763170.244558	3.410041841004184	4.0	4	1.0	1.0
1599763171.0278947	1599763171.0278947	3.4476987447698746	3.0	3	0.8660254037844386	0.8660254037844386
1599763171.1831985	1599763171.1831985	3.485355648535565	4.0	4	1.0	1.0
1599763171.65448	1599763171.65448	3.5230125523012554	5.0	5	1.118033988749895	1.118033988749895
1599763172.0706441	1599763172.0706441	3.560669456066946	7.0	7	1.3228756555322954	1.3228756555322954
1599763172.6350114	1599763172.6350114	3.5983263598326363	9.0	9	1.5	1.5
1599763173.1157043	1599763173.1157043	3.6359832635983262	4.0	4	1.0	1.0
1599763173.61582	1599763173.61582	3.6736401673640167	2.0	2	0.7071067811865476	0.7071067811865476
1599763174.123829	1599763174.123829	3.711297071129707	4.0	4	1.0	1.0
1599763174.6615906	1599763174.6615906	3.7489539748953975	6.0	6	1.224744871391589	1.224744871391589
1599763175.1916223	1599763175.1916223	3.786610878661088	5.0	5	1.118033988749895	1.118033988749895
1599763175.667369	1599763175.667369	3.8242677824267783	8.0	8	1.4142135623730951	1.4142135623730951
1599763176.2728508	1599763176.2728508	3.8619246861924688	10.0	10	1.5811388300841898	1.5811388300841898
1599763176.8264015	1599763176.8264015	3.899581589958159	18.0	18	2.1213203435596424	2.1213203435596424
1599763177.3374188	1599763177.3374188	3.9372384937238496	6.0	6	1.224744871391589	1.224744871391589
1599763177.9108548	1599763177.9108548	3.97489539748954	12.0	12	1.7320508075688772	1.7320508075688772
1599763178.3990333	1599763178.3990333	4.01255230125523	11.0	11	1.6583123951777	1.6583123951777
1599763178.9765484	1599763178.9765484	4.05020920502092	11.0	11	1.6583123951777	1.6583123951777
1599763179.495848	1599763179.495848	4.087866108786611	20.0	20	2.23606797749979	2.23606797749979
1599763180.0507798	1599763180.0507798	4.125523012552302	11.0	11	1.6583123951777	1.6583123951777
1599763180.5483773	1599763180.5483773	4.163179916317992	3.0	3	0.8660254037844386	0.8660254037844386
1599763181.061036	1599763181.061036	4.200836820083682	11.0	11	1.6583123951777	1.6583123951777
1599763181.6746926	1599763181.6746926	4.2384937238493725	8.0	8	1.4142135623730951	1.4142135623730951
1599763182.2192545	1599763182.2192545	4.276150627615063	15.0	15	1.9364916731037085	1.9364916731037085
1599763182.739854	1599763182.739854	4.313807531380753	8.0	8	1.4142135623730951	1.4142135623730951
1599763183.284627	1599763183.284627	4.351464435146443	5.0	5	1.118033988749895	1.118033988749895
1599763183.8304324	1599763183.8304324	4.389121338912134	6.0	6	1.224744871391589	1.224744871391589
1599763184.3632658	1599763184.3632658	4.426778242677824	10.0	10	1.5811388300841898	1.5811388300841898
1599763184.8703675	1599763184.8703675	4.464435146443515	5.0	5	1.118033988749895	1.118033988749895
1599763185.370178	1599763185.370178	4.502092050209205	5.0	5	1.118033988749895	1.118033988749895
1599763185.8514957	1599763185.8514957	4.539748953974895	2.0	2	0.7071067811865476	0.7071067811865476
1599763186.331579	1599763186.331579	4.577405857740586	1.0	1	0.5	0.5
1599763186.810792	1599763186.810792	4.615062761506277	4.0	4	1.0	1.0
1599763187.3092067	1599763187.3092067	4.652719665271967	4.0	4	1.0	1.0
1599763187.7766037	1599763187.7766037	4.690376569037657	3.0	3	0.8660254037844386	0.8660254037844386
1599763188.2780879	1599763188.2780879	4.7280334728033475	1.0	1	0.5	0.5
1599763188.716745	1599763188.716745	4.765690376569038	4.0	4	1.0	1.0
1599763189.2478223	1599763189.2478223	4.803347280334728	2.0	2	0.7071067811865476	0.7071067811865476
1599763189.7094767	1599763189.7094767	4.841004184100418	3.0	3	0.8660254037844386	0.8660254037844386
1599763190.2214959	1599763190.2214959	4.878661087866108	3.0	3	0.8660254037844386	0.8660254037844386
1599763190.7226946	1599763190.7226946	4.916317991631799	2.0	2	0.7071067811865476	0.7071067811865476
1599763191.1905577	1599763191.1905577	4.95397489539749	1.0	1	0.5	0.5
1599763191.665225	1599763191.665225	4.99163179916318	3.0	3	0.8660254037844386	0.8660254037844386
1599763192.1621747	1599763192.1621747	5.02928870292887	2.0	2	0.7071067811865476	0.7071067811865476
1599763192.6406963	1599763192.6406963	5.066945606694561	2.0	2	0.7071067811865476	0.7071067811865476
1599763193.1268184	1599763193.1268184	5.104602510460251	2.0	2	0.7071067811865476	0.7071067811865476
1599763193.6019716	1599763193.6019716	5.142259414225942	3.0	3	0.8660254037844386	0.8660254037844386
1599763194.1014812	1599763194.1014812	5.179916317991632	2.0	2	0.7071067811865476	0.7071067811865476
1599763194.5578802	1599763194.5578802	5.2175732217573225	2.0	2	0.7071067811865476	0.7071067811865476
1599763194.9934044	1599763194.9934044	5.2552301255230125	1.0	1	0.5	0.5
1599763195.4298303	1599763195.4298303	5.292887029288703	5.0	5	1.118033988749895	1.118033988749895
1599763195.8281515	1599763195.8281515	5.330543933054393	3.0	3	0.8660254037844386	0.8660254037844386
1599763196.3026826	1599763196.3026826	5.368200836820084	0.0	0	0	0.5
1599763196.740378	1599763196.740378	5.405857740585774	6.0	6	1.224744871391589	1.224744871391589
1599763197.1780434	1599763197.1780434	5.443514644351464	3.0	3	0.8660254037844386	0.8660254037844386
1599763197.5729797	1599763197.5729797	5.481171548117155	3.0	3	0.8660254037844386	0.8660254037844386
1599763198.0424483	1599763198.0424483	5.518828451882845	3.0	3	0.8660254037844386	0.8660254037844386
1599763198.4923167	1599763198.4923167	5.556485355648536	2.0	2	0.7071067811865476	0.7071067811865476
1599763198.9179907	1599763198.9179907	5.594142259414226	5.0	5	1.118033988749895	1.118033988749895
1599763199.364945	1599763199.364945	5.631799163179917	2.0	2	0.7071067811865476	0.7071067811865476
1599763199.7903588	1599763199.7903588	5.669456066945607	2.0	2	0.7071067811865476	0.7071067811865476
1599763200.249054	1599763200.249054	5.7071129707112975	2.0	2	0.7071067811865476	0.7071067811865476
1599763200.6600008	1599763200.6600008	5.7447698744769875	1.0	1	0.5	0.5
1599763201.1160116	1599763201.1160116	5.782426778242678	2.0	2	0.7071067811865476	0.7071067811865476
1599763201.5367088	1599763201.5367088	5.820083682008368	4.0	4	1.0	1.0
1599763201.9834661	1599763201.9834661	5.857740585774058	4.0	4	1.0	1.0
1599763202.415377	1599763202.415377	5.895397489539749	5.0	5	1.118033988749895	1.118033988749895
1599763202.8332229	1599763202.8332229	5.933054393305439	1.0	1	0.5	0.5
1599763203.299638	1599763203.299638	5.97071129707113	1.0	1	0.5	0.5
1599763203.6230028	1599763203.6230028	6.00836820083682	2.0	2	0.7071067811865476	0.7071067811865476
1599763204.0586348	1599763204.0586348	6.046025104602511	1.0	1	0.5	0.5
1599763204.4236681	1599763204.4236681	6.083682008368201	1.0	1	0.5	0.5
1599763204.8388562	1599763204.8388562	6.121338912133892	0.0	0	0	0.5
1599763205.2134833	1599763205.2134833	6.158995815899582	1.0	1	0.5	0.5
1599763205.6295762	1599763205.6295762	6.1966527196652725	0.0	0	0	0.5
1599763206.0318024	1599763206.0318024	6.2343096234309625	2.0	2	0.7071067811865476	0.7071067811865476
1599763206.4121652	1599763206.4121652	6.2719665271966525	1.0	1	0.5	0.5
1599763206.8083997	1599763206.8083997	6.309623430962343	2.0	2	0.7071067811865476	0.7071067811865476
1599763207.1968968	1599763207.1968968	6.347280334728033	5.0	5	1.118033988749895	1.118033988749895
1599763207.596898	1599763207.596898	6.384937238493724	1.0	1	0.5	0.5
1599763207.9877954	1599763207.9877954	6.422594142259414	0.0	0	0	0.5
1599763208.387313	1599763208.387313	6.460251046025105	2.0	2	0.7071067811865476	0.7071067811865476
1599763208.7782283	1599763208.7782283	6.497907949790795	3.0	3	0.8660254037844386	0.8660254037844386
1599763209.16946	1599763209.16946	6.535564853556486	1.0	1	0.5	0.5
1599763209.557327	1599763209.557327	6.573221757322176	2.0	2	0.7071067811865476	0.7071067811865476
1599763210.0409453	1599763210.0409453	6.610878661087867	0.0	0	0	0.5
1599763210.3082554	1599763210.3082554	6.648535564853557	3.0	3	0.8660254037844386	0.8660254037844386
1599763210.805392	1599763210.805392	6.686192468619247	0.0	0	0	0.5
1599763211.1460311	1599763211.1460311	6.7238493723849375	1.0	1	0.5	0.5
1599763211.7040083	1599763211.7040083	6.7615062761506275	1.0	1	0.5	0.5
1599763212.0453053	1599763212.0453053	6.799163179916318	2.0	2	0.7071067811865476	0.7071067811865476
1599763212.4258308	1599763212.4258308	6.836820083682008	3.0	3	0.8660254037844386	0.8660254037844386
1599763212.8988883	1599763212.8988883	6.874476987447699	2.0	2	0.7071067811865476	0.7071067811865476
1599763213.314597	1599763213.314597	6.912133891213389	1.0	1	0.5	0.5
1599763213.7441502	1599763213.7441502	6.94979079497908	2.0	2	0.7071067811865476	0.7071067811865476
1599763214.182188	1599763214.182188	6.98744769874477	3.0	3	0.8660254037844386	0.8660254037844386
1599763214.611522	1599763214.611522	7.02510460251046	0.0	0	0	0.5
1599763215.0450292	1599763215.0450292	7.062761506276151	1.0	1	0.5	0.5
1599763215.4702287	1599763215.4702287	7.100418410041841	1.0	1	0.5	0.5
1599763215.9287453	1599763215.9287453	7.138075313807532	2.0	2	0.7071067811865476	0.7071067811865476
1599763216.3626654	1599763216.3626654	7.175732217573222	1.0	1	0.5	0.5
1599763216.7649858	1599763216.7649858	7.2133891213389125	3.0	3	0.8660254037844386	0.8660254037844386
1599763217.2712443	1599763217.2712443	7.2510460251046025	2.0	2	0.7071067811865476	0.7071067811865476
1599763217.6019433	1599763217.6019433	7.288702928870293	5.0	5	1.118033988749895	1.118033988749895
1599763218.0888498	1599763218.0888498	7.326359832635983	7.0	7	1.3228756555322954	1.3228756555322954
1599763218.5067732	1599763218.5067732	7.364016736401674	3.0	3	0.8660254037844386	0.8660254037844386
1599763219.1162345	1599763219.1162345	7.401673640167364	3.0	3	0.8660254037844386	0.8660254037844386
1599763219.3572164	1599763219.3572164	7.439330543933054	1.0	1	0.5	0.5
1599763219.806049	1599763219.806049	7.476987447698745	2.0	2	0.7071067811865476	0.7071067811865476
1599763220.3033822	1599763220.3033822	7.514644351464435	6.0	6	1.224744871391589	1.224744871391589
1599763220.7589362	1599763220.7589362	7.552301255230126	9.0	9	1.5	1.5
1599763221.2362235	1599763221.2362235	7.589958158995816	6.0	6	1.224744871391589	1.224744871391589
1599763221.717247	1599763221.717247	7.627615062761507	1.0	1	0.5	0.5
1599763222.2083821	1599763222.2083821	7.665271966527197	4.0	4	1.0	1.0
1599763222.6668653	1599763222.6668653	7.7029288702928875	1.0	1	0.5	0.5
1599763223.1614687	1599763223.1614687	7.7405857740585775	3.0	3	0.8660254037844386	0.8660254037844386
1599763223.6159997	1599763223.6159997	7.778242677824268	0.0	0	0	0.5
1599763224.1075675	1599763224.1075675	7.815899581589958	5.0	5	1.118033988749895	1.118033988749895
1599763224.569328	1599763224.569328	7.853556485355648	0.0	0	0	0.5
1599763225.0513484	1599763225.0513484	7.891213389121339	1.0	1	0.5	0.5
1599763225.5175464	1599763225.5175464	7.928870292887029	2.0	2	0.7071067811865476	0.7071067811865476
1599763226.0041976	1599763226.0041976	7.96652719665272	0.0	0	0	0.5
1599763226.493724	1599763226.493724	8.00418410041841	0.0	0	0	0.5
1599763226.9589155	1599763226.9589155	8.0418410041841	0.0	0	0	0.5
1599763227.5410817	1599763227.5410817	8.07949790794979	2.0	2	0.7071067811865476	0.7071067811865476
1599763228.2283435	1599763228.2283435	8.117154811715482	1.0	1	0.5	0.5
1599763228.3678591	1599763228.3678591	8.154811715481172	0.0	0	0	0.5
1599763228.867093	1599763228.867093	8.192468619246863	1.0	1	0.5	0.5
1599763229.3607936	1599763229.3607936	8.230125523012553	5.0	5	1.118033988749895	1.118033988749895
1599763229.8906484	1599763229.8906484	8.267782426778243	1.0	1	0.5	0.5
1599763230.409336	1599763230.409336	8.305439330543933	1.0	1	0.5	0.5
1599763230.8571	1599763230.8571	8.343096234309623	1.0	1	0.5	0.5
1599763231.467617	1599763231.467617	8.380753138075313	3.0	3	0.8660254037844386	0.8660254037844386
1599763231.9659142	1599763231.9659142	8.418410041841003	4.0	4	1.0	1.0
1599763232.4802084	1599763232.4802084	8.456066945606695	1.0	1	0.5	0.5
1599763233.0172982	1599763233.0172982	8.493723849372385	1.0	1	0.5	0.5
1599763233.5436597	1599763233.5436597	8.531380753138077	2.0	2	0.7071067811865476	0.7071067811865476
1599763234.0716922	1599763234.0716922	8.569037656903767	5.0	5	1.118033988749895	1.118033988749895
1599763234.5704	1599763234.5704	8.606694560669457	5.0	5	1.118033988749895	1.118033988749895
1599763235.1064084	1599763235.1064084	8.644351464435147	5.0	5	1.118033988749895	1.118033988749895
1599763235.5906107	1599763235.5906107	8.682008368200837	6.0	6	1.224744871391589	1.224744871391589
1599763236.0985444	1599763236.0985444	8.719665271966527	2.0	2	0.7071067811865476	0.7071067811865476
1599763236.6219692	1599763236.6219692	8.757322175732217	7.0	7	1.3228756555322954	1.3228756555322954
1599763237.223765	1599763237.223765	8.794979079497908	2.0	2	0.7071067811865476	0.7071067811865476
1599763237.7141464	1599763237.7141464	8.832635983263598	3.0	3	0.8660254037844386	0.8660254037844386
1599763238.2055676	1599763238.2055676	8.87029288702929	7.0	7	1.3228756555322954	1.3228756555322954
1599763238.7981822	1599763238.7981822	8.90794979079498	1.0	1	0.5	0.5
1599763239.2879674	1599763239.2879674	8.94560669456067	8.0	8	1.4142135623730951	1.4142135623730951
1599763239.8416991	1599763239.8416991	8.98326359832636	2.0	2	0.7071067811865476	0.7071067811865476
1599763240.4182737	1599763240.4182737	9.02092050209205	10.0	10	1.5811388300841898	1.5811388300841898
1599763240.9711409	1599763240.9711409	9.05857740585774	9.0	9	1.5	1.5
1599763241.591067	1599763241.591067	9.096234309623432	4.0	4	1.0	1.0
1599763242.0983784	1599763242.0983784	9.133891213389122	4.0	4	1.0	1.0
1599763242.702553	1599763242.702553	9.171548117154812	1.0	1	0.5	0.5
1599763243.2534842	1599763243.2534842	9.209205020920502	3.0	3	0.8660254037844386	0.8660254037844386
1599763243.8068082	1599763243.8068082	9.246861924686193	5.0	5	1.118033988749895	1.118033988749895
1599763244.5479112	1599763244.5479112	9.284518828451883	1.0	1	0.5	0.5
1599763244.980558	1599763244.980558	9.322175732217573	1.0	1	0.5	0.5
1599763245.5421538	1599763245.5421538	9.359832635983263	0.0	0	0	0.5
1599763246.1280975	1599763246.1280975	9.397489539748955	3.0	3	0.8660254037844386	0.8660254037844386
1599763246.8346968	1599763246.8346968	9.435146443514645	1.0	1	0.5	0.5
1599763247.26273	1599763247.26273	9.472803347280335	1.0	1	0.5	0.5
1599763247.9200635	1599763247.9200635	9.510460251046025	2.0	2	0.7071067811865476	0.7071067811865476
1599763248.3994782	1599763248.3994782	9.548117154811715	1.0	1	0.5	0.5
1599763249.0652127	1599763249.0652127	9.585774058577407	1.0	1	0.5	0.5
1599763249.6442776	1599763249.6442776	9.623430962343097	4.0	4	1.0	1.0
1599763250.2150052	1599763250.2150052	9.661087866108787	3.0	3	0.8660254037844386	0.8660254037844386
1599763250.7930608	1599763250.7930608	9.698744769874477	3.0	3	0.8660254037844386	0.8660254037844386
1599763251.334136	1599763251.334136	9.736401673640168	1.0	1	0.5	0.5
1599763251.8670733	1599763251.8670733	9.774058577405858	1.0	1	0.5	0.5
1599763252.36331	1599763252.36331	9.811715481171548	1.0	1	0.5	0.5
1599763252.8873367	1599763252.8873367	9.849372384937238	3.0	3	0.8660254037844386	0.8660254037844386
1599763253.3997083	1599763253.3997083	9.887029288702928	1.0	1	0.5	0.5
1599763253.8544426	1599763253.8544426	9.92468619246862	2.0	2	0.7071067811865476	0.7071067811865476
1599763254.4559748	1599763254.4559748	9.96234309623431	3.0	3	0.8660254037844386	0.8660254037844386
1599763254.9050436	1599763254.9050436	10.0	2.0	2	0.7071067811865476	0.7071067811865476