# <?xml version="1.0" ?>
# <DataFileHeader>
#   <Variables>
#     <Element name="PulseProgram" type="dict">
#       <Element name="PulseProgram" type="str">C:/Users/ions/Documents/IonControl/project_dir/QuditLab/config/PulseProgramsPlus/Ablation_NeutralFluorescence.ppp</Element>
#       <Element name="NULL" type="Quantity">0</Element>
#       <Element name="FFFFFFFF" type="Quantity">18446744073709551615</Element>
#       <Element name="INTERRUPT_EXITCODE" type="Quantity">18446198715942174720</Element>
#       <Element name="InitializationShutter" type="int">5154</Element>
#       <Element name="NaturalAblation_mask" type="int">0</Element>
#       <Element name="NaturalAblation" type="int">0</Element>
#       <Element name="EndShutter" type="int">5154</Element>
#       <Element name="ShutterDelayTime" type="Quantity">0.5 s</Element>
#       <Element name="WindowStartTime" type="Quantity">145 us</Element>
#       <Element name="DetectTime" type="Quantity">20 us</Element>
#       <Element name="DummyVar" type="int">0</Element>
#       <Element name="experiments" type="int">1</Element>
#       <Element name="DetectCounters" type="int">1</Element>
#       <Element name="endLabel" type="Quantity">18446744073709551615</Element>
#       <Element name="experimentsleft" type="Quantity">100</Element>
#       <Element name="currentexperiment" type="Quantity">0</Element>
#       <Element name="inlinevar_1" type="Quantity">1</Element>
#     </Element>
#     <Element name="Scan" type="dict">
#       <Element name="scanParameter" type="str">DummyVar</Element>
#       <Element name="scanTarget" type="str">Internal</Element>
#       <Element name="scantype" type="int">0</Element>
#       <Element name="scanMode" type="int">0</Element>
#       <Element name="xUnit" type="str"></Element>
#       <Element name="xExpression" type="str"></Element>
#       <Element name="loadPP" type="bool">True</Element>
#       <Element name="loadPPName" type="str">Ablation_NeutralFluorescence_Rad.ppp</Element>
#       <Element name="parallelInternalScanParameter" type="str">None</Element>
#     </Element>
#     <ColumnSpec>timeTickFirst, timeTickLast, x, PMT Count, PMT Count_raw, PMT Count_bottom, PMT Count_top</ColumnSpec>
#     <Element name="comment" type="str"></Element>
#     <Element name="lastDataAquired" type="datetime">2020-09-02 21:28:24.873130+00:00</Element>
#     <Element name="name" type="str"></Element>
#     <Element name="traceCreation" type="datetime">2020-09-02 21:26:35.329258+00:00</Element>
#     <Element name="traceFinalized" type="datetime">2020-09-02 21:28:24.876335+00:00</Element>
#     <TracePlottingList>
#       <TracePlotting _bottomColumn="PMT Count_bottom" _filtColumn="None" _fitFunction="None" _heightColumn="height" _rawColumn="PMT Count_raw" _topColumn="PMT Count_top" _xColumn="x" _yColumn="PMT Count" fill="True" name="PMT Count" properties="&lt;trace.PlottedTrace.PlottedTraceProperties object at 0x000001B5086C3B38&gt;" style="0" type="0" windowName="Scan Data" xAxisLabel="DummyVar" xAxisUnit="" yAxisLabel="None">
#         <PlottedTraceProperties averageSameX="False" averageType="0" combinePoints="0"/>
#       </TracePlotting>
#     </TracePlottingList>
#   </Variables>
# </DataFileHeader>
1599081994.32832	1599081994.32832	1.0	4.0	4	1.0	1.0
1599081995.2823453	1599081995.2823453	1.0376569037656904	1.0	1	0.5	0.5
1599081995.8214722	1599081995.8214722	1.0753138075313808	2.0	2	0.7071067811865476	0.7071067811865476
1599081996.4510252	1599081996.4510252	1.112970711297071	1.0	1	0.5	0.5
1599081996.7494612	1599081996.7494612	1.1506276150627615	4.0	4	1.0	1.0
1599081997.2356946	1599081997.2356946	1.1882845188284519	1.0	1	0.5	0.5
1599081997.6913533	1599081997.6913533	1.2259414225941423	2.0	2	0.7071067811865476	0.7071067811865476
1599081998.183144	1599081998.183144	1.2635983263598327	3.0	3	0.8660254037844386	0.8660254037844386
1599081999.0832596	1599081999.0832596	1.301255230125523	1.0	1	0.5	0.5
1599081999.3009217	1599081999.3009217	1.3389121338912133	1.0	1	0.5	0.5
1599081999.649675	1599081999.649675	1.3765690376569037	2.0	2	0.7071067811865476	0.7071067811865476
1599082000.046299	1599082000.046299	1.4142259414225942	1.0	1	0.5	0.5
1599082000.4696994	1599082000.4696994	1.4518828451882846	1.0	1	0.5	0.5
1599082000.8257353	1599082000.8257353	1.489539748953975	2.0	2	0.7071067811865476	0.7071067811865476
1599082001.2051826	1599082001.2051826	1.5271966527196654	2.0	2	0.7071067811865476	0.7071067811865476
1599082001.6196005	1599082001.6196005	1.5648535564853556	2.0	2	0.7071067811865476	0.7071067811865476
1599082002.0883996	1599082002.0883996	1.602510460251046	4.0	4	1.0	1.0
1599082002.4860883	1599082002.4860883	1.6401673640167365	2.0	2	0.7071067811865476	0.7071067811865476
1599082002.9316401	1599082002.9316401	1.6778242677824267	0.0	0	0	0.5
1599082003.366667	1599082003.366667	1.715481171548117	2.0	2	0.7071067811865476	0.7071067811865476
1599082003.8099322	1599082003.8099322	1.7531380753138075	3.0	3	0.8660254037844386	0.8660254037844386
1599082004.1807802	1599082004.1807802	1.790794979079498	2.0	2	0.7071067811865476	0.7071067811865476
1599082004.6257055	1599082004.6257055	1.8284518828451883	2.0	2	0.7071067811865476	0.7071067811865476
1599082005.0346518	1599082005.0346518	1.8661087866108788	2.0	2	0.7071067811865476	0.7071067811865476
1599082005.453226	1599082005.453226	1.9037656903765692	2.0	2	0.7071067811865476	0.7071067811865476
1599082005.858996	1599082005.858996	1.9414225941422596	5.0	5	1.118033988749895	1.118033988749895
1599082006.3303173	1599082006.3303173	1.9790794979079498	1.0	1	0.5	0.5
1599082006.703963	1599082006.703963	2.01673640167364	1.0	1	0.5	0.5
1599082007.1736662	1599082007.1736662	2.054393305439331	4.0	4	1.0	1.0
1599082007.5674338	1599082007.5674338	2.092050209205021	2.0	2	0.7071067811865476	0.7071067811865476
1599082007.949287	1599082007.949287	2.1297071129707112	1.0	1	0.5	0.5
1599082008.4751885	1599082008.4751885	2.1673640167364017	1.0	1	0.5	0.5
1599082008.9937606	1599082008.9937606	2.205020920502092	2.0	2	0.7071067811865476	0.7071067811865476
1599082009.2792103	1599082009.2792103	2.2426778242677825	0.0	0	0	0.5
1599082010.0766678	1599082010.0766678	2.280334728033473	1.0	1	0.5	0.5
1599082010.227953	1599082010.227953	2.3179916317991633	4.0	4	1.0	1.0
1599082010.3553686	1599082010.3553686	2.3556485355648533	1.0	1	0.5	0.5
1599082010.7623284	1599082010.7623284	2.393305439330544	2.0	2	0.7071067811865476	0.7071067811865476
1599082011.169261	1599082011.169261	2.430962343096234	1.0	1	0.5	0.5
1599082011.401641	1599082011.401641	2.468619246861925	2.0	2	0.7071067811865476	0.7071067811865476
1599082011.7687297	1599082011.7687297	2.506276150627615	4.0	4	1.0	1.0
1599082012.5481174	1599082012.5481174	2.5439330543933054	1.0	1	0.5	0.5
1599082012.6678746	1599082012.6678746	2.581589958158996	0.0	0	0	0.5
1599082012.969513	1599082012.969513	2.6192468619246863	4.0	4	1.0	1.0
1599082013.3325915	1599082013.3325915	2.6569037656903767	2.0	2	0.7071067811865476	0.7071067811865476
1599082013.6757514	1599082013.6757514	2.694560669456067	0.0	0	0	0.5
1599082014.046435	1599082014.046435	2.7322175732217575	2.0	2	0.7071067811865476	0.7071067811865476
1599082014.6313252	1599082014.6313252	2.7698744769874475	5.0	5	1.118033988749895	1.118033988749895
1599082014.9377553	1599082014.9377553	2.8075313807531384	2.0	2	0.7071067811865476	0.7071067811865476
1599082015.4769387	1599082015.4769387	2.8451882845188283	3.0	3	0.8660254037844386	0.8660254037844386
1599082015.5825222	1599082015.5825222	2.882845188284519	2.0	2	0.7071067811865476	0.7071067811865476
1599082016.0050006	1599082016.0050006	2.920502092050209	1.0	1	0.5	0.5
1599082016.4621766	1599082016.4621766	2.9581589958158996	0.0	0	0	0.5
1599082016.8271558	1599082016.8271558	2.99581589958159	3.0	3	0.8660254037844386	0.8660254037844386
1599082017.7320535	1599082017.7320535	3.0334728033472804	3.0	3	0.8660254037844386	0.8660254037844386
1599082018.25752	1599082018.25752	3.071129707112971	0.0	0	0	0.5
1599082018.790503	1599082018.790503	3.1087866108786613	3.0	3	0.8660254037844386	0.8660254037844386
1599082018.790503	1599082018.790503	3.1464435146443517	0.0	0	0	0.5
1599082019.687068	1599082019.687068	3.184100418410042	2.0	2	0.7071067811865476	0.7071067811865476
1599082020.1352663	1599082020.1352663	3.221757322175732	3.0	3	0.8660254037844386	0.8660254037844386
1599082020.1352663	1599082020.1352663	3.2594142259414225	0.0	0	0	0.5
1599082020.2946222	1599082020.2946222	3.297071129707113	2.0	2	0.7071067811865476	0.7071067811865476
1599082021.3323276	1599082021.3323276	3.3347280334728033	4.0	4	1.0	1.0
1599082027.9558585	1599082027.9558585	3.3723849372384938	1.0	1	0.5	0.5
1599082027.9558585	1599082027.9558585	3.410041841004184	4.0	4	1.0	1.0
1599082027.9558585	1599082027.9558585	3.4476987447698746	2.0	2	0.7071067811865476	0.7071067811865476
1599082027.9568245	1599082027.9568245	3.485355648535565	0.0	0	0	0.5
1599082027.9568245	1599082027.9568245	3.5230125523012554	1.0	1	0.5	0.5
1599082027.9568245	1599082027.9568245	3.560669456066946	1.0	1	0.5	0.5
1599082027.9568245	1599082027.9568245	3.5983263598326363	1.0	1	0.5	0.5
1599082028.1924	1599082028.1924	3.6359832635983262	1.0	1	0.5	0.5
1599082028.1924	1599082028.1924	3.6736401673640167	0.0	0	0	0.5
1599082028.193553	1599082028.193553	3.711297071129707	1.0	1	0.5	0.5
1599082028.193553	1599082028.193553	3.7489539748953975	2.0	2	0.7071067811865476	0.7071067811865476
1599082028.193553	1599082028.193553	3.786610878661088	1.0	1	0.5	0.5
1599082028.193553	1599082028.193553	3.8242677824267783	3.0	3	0.8660254037844386	0.8660254037844386
1599082028.193553	1599082028.193553	3.8619246861924688	5.0	5	1.118033988749895	1.118033988749895
1599082028.193553	1599082028.193553	3.899581589958159	4.0	4	1.0	1.0
1599082028.1947205	1599082028.1947205	3.9372384937238496	1.0	1	0.5	0.5
1599082028.1947205	1599082028.1947205	3.97489539748954	3.0	3	0.8660254037844386	0.8660254037844386
1599082028.3468244	1599082028.3468244	4.01255230125523	1.0	1	0.5	0.5
1599082028.7288673	1599082028.7288673	4.05020920502092	1.0	1	0.5	0.5
1599082029.2000978	1599082029.2000978	4.087866108786611	3.0	3	0.8660254037844386	0.8660254037844386
1599082029.596566	1599082029.596566	4.125523012552302	2.0	2	0.7071067811865476	0.7071067811865476
1599082030.0818453	1599082030.0818453	4.163179916317992	1.0	1	0.5	0.5
1599082031.3626704	1599082031.3626704	4.200836820083682	1.0	1	0.5	0.5
1599082031.3626704	1599082031.3626704	4.2384937238493725	4.0	4	1.0	1.0
1599082031.5233805	1599082031.5233805	4.276150627615063	0.0	0	0	0.5
1599082031.955807	1599082031.955807	4.313807531380753	3.0	3	0.8660254037844386	0.8660254037844386
1599082032.3631	1599082032.3631	4.351464435146443	3.0	3	0.8660254037844386	0.8660254037844386
1599082032.851131	1599082032.851131	4.389121338912134	3.0	3	0.8660254037844386	0.8660254037844386
1599082033.3000128	1599082033.3000128	4.426778242677824	0.0	0	0	0.5
1599082033.799332	1599082033.799332	4.464435146443515	5.0	5	1.118033988749895	1.118033988749895
1599082034.2156084	1599082034.2156084	4.502092050209205	1.0	1	0.5	0.5
1599082034.733869	1599082034.733869	4.539748953974895	0.0	0	0	0.5
1599082035.1279747	1599082035.1279747	4.577405857740586	2.0	2	0.7071067811865476	0.7071067811865476
1599082035.6484315	1599082035.6484315	4.615062761506277	1.0	1	0.5	0.5
1599082036.1343946	1599082036.1343946	4.652719665271967	3.0	3	0.8660254037844386	0.8660254037844386
1599082036.5662944	1599082036.5662944	4.690376569037657	1.0	1	0.5	0.5
1599082037.1866782	1599082037.1866782	4.7280334728033475	2.0	2	0.7071067811865476	0.7071067811865476
1599082037.574962	1599082037.574962	4.765690376569038	3.0	3	0.8660254037844386	0.8660254037844386
1599082038.1653643	1599082038.1653643	4.803347280334728	5.0	5	1.118033988749895	1.118033988749895
1599082038.516467	1599082038.516467	4.841004184100418	2.0	2	0.7071067811865476	0.7071067811865476
1599082039.0999157	1599082039.0999157	4.878661087866108	4.0	4	1.0	1.0
1599082039.5755174	1599082039.5755174	4.916317991631799	5.0	5	1.118033988749895	1.118033988749895
1599082040.0847259	1599082040.0847259	4.95397489539749	2.0	2	0.7071067811865476	0.7071067811865476
1599082040.5255728	1599082040.5255728	4.99163179916318	1.0	1	0.5	0.5
1599082041.2419648	1599082041.2419648	5.02928870292887	1.0	1	0.5	0.5
1599082041.9149814	1599082041.9149814	5.066945606694561	0.0	0	0	0.5
1599082042.1899464	1599082042.1899464	5.104602510460251	3.0	3	0.8660254037844386	0.8660254037844386
1599082042.579226	1599082042.579226	5.142259414225942	3.0	3	0.8660254037844386	0.8660254037844386
1599082043.0997028	1599082043.0997028	5.179916317991632	1.0	1	0.5	0.5
1599082043.5926192	1599082043.5926192	5.2175732217573225	0.0	0	0	0.5
1599082044.0809932	1599082044.0809932	5.2552301255230125	1.0	1	0.5	0.5
1599082044.6528993	1599082044.6528993	5.292887029288703	5.0	5	1.118033988749895	1.118033988749895
1599082045.4862041	1599082045.4862041	5.330543933054393	2.0	2	0.7071067811865476	0.7071067811865476
1599082045.607159	1599082045.607159	5.368200836820084	2.0	2	0.7071067811865476	0.7071067811865476
1599082050.4175205	1599082050.4175205	5.405857740585774	4.0	4	1.0	1.0
1599082050.418598	1599082050.418598	5.443514644351464	4.0	4	1.0	1.0
1599082050.418598	1599082050.418598	5.481171548117155	2.0	2	0.7071067811865476	0.7071067811865476
1599082050.418598	1599082050.418598	5.518828451882845	3.0	3	0.8660254037844386	0.8660254037844386
1599082050.418598	1599082050.418598	5.556485355648536	1.0	1	0.5	0.5
1599082050.418598	1599082050.418598	5.594142259414226	1.0	1	0.5	0.5
1599082050.418598	1599082050.418598	5.631799163179917	1.0	1	0.5	0.5
1599082050.418598	1599082050.418598	5.669456066945607	1.0	1	0.5	0.5
1599082050.418598	1599082050.418598	5.7071129707112975	2.0	2	0.7071067811865476	0.7071067811865476
1599082050.9544468	1599082050.9544468	5.7447698744769875	1.0	1	0.5	0.5
1599082051.217713	1599082051.217713	5.782426778242678	2.0	2	0.7071067811865476	0.7071067811865476
1599082051.5501766	1599082051.5501766	5.820083682008368	3.0	3	0.8660254037844386	0.8660254037844386
1599082051.9988015	1599082051.9988015	5.857740585774058	2.0	2	0.7071067811865476	0.7071067811865476
1599082052.5859869	1599082052.5859869	5.895397489539749	0.0	0	0	0.5
1599082052.976139	1599082052.976139	5.933054393305439	1.0	1	0.5	0.5
1599082056.654328	1599082056.654328	5.97071129707113	1.0	1	0.5	0.5
1599082056.654328	1599082056.654328	6.00836820083682	4.0	4	1.0	1.0
1599082056.654328	1599082056.654328	6.046025104602511	1.0	1	0.5	0.5
1599082056.654328	1599082056.654328	6.083682008368201	3.0	3	0.8660254037844386	0.8660254037844386
1599082056.654328	1599082056.654328	6.121338912133892	3.0	3	0.8660254037844386	0.8660254037844386
1599082056.6554244	1599082056.6554244	6.158995815899582	2.0	2	0.7071067811865476	0.7071067811865476
1599082056.6554244	1599082056.6554244	6.1966527196652725	2.0	2	0.7071067811865476	0.7071067811865476
1599082056.9379723	1599082056.9379723	6.2343096234309625	3.0	3	0.8660254037844386	0.8660254037844386
1599082057.1223931	1599082057.1223931	6.2719665271966525	4.0	4	1.0	1.0
1599082057.68682	1599082057.68682	6.309623430962343	1.0	1	0.5	0.5
1599082058.05575	1599082058.05575	6.347280334728033	1.0	1	0.5	0.5
1599082058.4778056	1599082058.4778056	6.384937238493724	3.0	3	0.8660254037844386	0.8660254037844386
1599082058.8557014	1599082058.8557014	6.422594142259414	6.0	6	1.224744871391589	1.224744871391589
1599082059.3186142	1599082059.3186142	6.460251046025105	0.0	0	0	0.5
1599082059.7703316	1599082059.7703316	6.497907949790795	4.0	4	1.0	1.0
1599082060.1693876	1599082060.1693876	6.535564853556486	2.0	2	0.7071067811865476	0.7071067811865476
1599082060.5530586	1599082060.5530586	6.573221757322176	1.0	1	0.5	0.5
1599082061.066383	1599082061.066383	6.610878661087867	1.0	1	0.5	0.5
1599082061.4028485	1599082061.4028485	6.648535564853557	0.0	0	0	0.5
1599082061.805203	1599082061.805203	6.686192468619247	1.0	1	0.5	0.5
1599082062.231784	1599082062.231784	6.7238493723849375	0.0	0	0	0.5
1599082062.6643145	1599082062.6643145	6.7615062761506275	2.0	2	0.7071067811865476	0.7071067811865476
1599082063.0837684	1599082063.0837684	6.799163179916318	3.0	3	0.8660254037844386	0.8660254037844386
1599082063.4539473	1599082063.4539473	6.836820083682008	0.0	0	0	0.5
1599082063.9456422	1599082063.9456422	6.874476987447699	3.0	3	0.8660254037844386	0.8660254037844386
1599082064.3265095	1599082064.3265095	6.912133891213389	2.0	2	0.7071067811865476	0.7071067811865476
1599082064.7225142	1599082064.7225142	6.94979079497908	1.0	1	0.5	0.5
1599082065.1512918	1599082065.1512918	6.98744769874477	2.0	2	0.7071067811865476	0.7071067811865476
1599082065.604049	1599082065.604049	7.02510460251046	2.0	2	0.7071067811865476	0.7071067811865476
1599082065.9264345	1599082065.9264345	7.062761506276151	0.0	0	0	0.5
1599082066.3065317	1599082066.3065317	7.100418410041841	0.0	0	0	0.5
1599082066.754531	1599082066.754531	7.138075313807532	2.0	2	0.7071067811865476	0.7071067811865476
1599082067.1581078	1599082067.1581078	7.175732217573222	2.0	2	0.7071067811865476	0.7071067811865476
1599082067.5977814	1599082067.5977814	7.2133891213389125	0.0	0	0	0.5
1599082068.0273616	1599082068.0273616	7.2510460251046025	0.0	0	0	0.5
1599082068.5052423	1599082068.5052423	7.288702928870293	1.0	1	0.5	0.5
1599082068.9248905	1599082068.9248905	7.326359832635983	2.0	2	0.7071067811865476	0.7071067811865476
1599082069.424104	1599082069.424104	7.364016736401674	2.0	2	0.7071067811865476	0.7071067811865476
1599082069.8436997	1599082069.8436997	7.401673640167364	1.0	1	0.5	0.5
1599082070.3138688	1599082070.3138688	7.439330543933054	1.0	1	0.5	0.5
1599082070.7300007	1599082070.7300007	7.476987447698745	2.0	2	0.7071067811865476	0.7071067811865476
1599082071.2131922	1599082071.2131922	7.514644351464435	1.0	1	0.5	0.5
1599082071.6474972	1599082071.6474972	7.552301255230126	1.0	1	0.5	0.5
1599082072.130548	1599082072.130548	7.589958158995816	3.0	3	0.8660254037844386	0.8660254037844386
1599082072.5410588	1599082072.5410588	7.627615062761507	2.0	2	0.7071067811865476	0.7071067811865476
1599082072.9920309	1599082072.9920309	7.665271966527197	3.0	3	0.8660254037844386	0.8660254037844386
1599082073.4096117	1599082073.4096117	7.7029288702928875	3.0	3	0.8660254037844386	0.8660254037844386
1599082073.9015784	1599082073.9015784	7.7405857740585775	5.0	5	1.118033988749895	1.118033988749895
1599082074.3426466	1599082074.3426466	7.778242677824268	2.0	2	0.7071067811865476	0.7071067811865476
1599082074.8461494	1599082074.8461494	7.815899581589958	3.0	3	0.8660254037844386	0.8660254037844386
1599082075.2386355	1599082075.2386355	7.853556485355648	3.0	3	0.8660254037844386	0.8660254037844386
1599082075.7486272	1599082075.7486272	7.891213389121339	5.0	5	1.118033988749895	1.118033988749895
1599082076.157601	1599082076.157601	7.928870292887029	2.0	2	0.7071067811865476	0.7071067811865476
1599082076.6314535	1599082076.6314535	7.96652719665272	1.0	1	0.5	0.5
1599082077.099221	1599082077.099221	8.00418410041841	4.0	4	1.0	1.0
1599082077.6307364	1599082077.6307364	8.0418410041841	1.0	1	0.5	0.5
1599082078.1026974	1599082078.1026974	8.07949790794979	4.0	4	1.0	1.0
1599082078.6187878	1599082078.6187878	8.117154811715482	1.0	1	0.5	0.5
1599082079.0895755	1599082079.0895755	8.154811715481172	5.0	5	1.118033988749895	1.118033988749895
1599082079.6028898	1599082079.6028898	8.192468619246863	1.0	1	0.5	0.5
1599082080.0760164	1599082080.0760164	8.230125523012553	1.0	1	0.5	0.5
1599082080.649695	1599082080.649695	8.267782426778243	1.0	1	0.5	0.5
1599082081.0874584	1599082081.0874584	8.305439330543933	0.0	0	0	0.5
1599082081.593319	1599082081.593319	8.343096234309623	3.0	3	0.8660254037844386	0.8660254037844386
1599082082.0814779	1599082082.0814779	8.380753138075313	4.0	4	1.0	1.0
1599082082.575635	1599082082.575635	8.418410041841003	2.0	2	0.7071067811865476	0.7071067811865476
1599082083.0742784	1599082083.0742784	8.456066945606695	2.0	2	0.7071067811865476	0.7071067811865476
1599082083.593351	1599082083.593351	8.493723849372385	2.0	2	0.7071067811865476	0.7071067811865476
1599082084.0621421	1599082084.0621421	8.531380753138077	3.0	3	0.8660254037844386	0.8660254037844386
1599082084.590322	1599082084.590322	8.569037656903767	2.0	2	0.7071067811865476	0.7071067811865476
1599082085.0667698	1599082085.0667698	8.606694560669457	3.0	3	0.8660254037844386	0.8660254037844386
1599082085.568142	1599082085.568142	8.644351464435147	2.0	2	0.7071067811865476	0.7071067811865476
1599082086.0539289	1599082086.0539289	8.682008368200837	0.0	0	0	0.5
1599082086.5736837	1599082086.5736837	8.719665271966527	0.0	0	0	0.5
1599082087.080777	1599082087.080777	8.757322175732217	2.0	2	0.7071067811865476	0.7071067811865476
1599082087.9880176	1599082087.9880176	8.794979079497908	4.0	4	1.0	1.0
1599082088.1868353	1599082088.1868353	8.832635983263598	0.0	0	0	0.5
1599082088.7044544	1599082088.7044544	8.87029288702929	4.0	4	1.0	1.0
1599082089.2379148	1599082089.2379148	8.90794979079498	1.0	1	0.5	0.5
1599082089.853735	1599082089.853735	8.94560669456067	3.0	3	0.8660254037844386	0.8660254037844386
1599082090.367154	1599082090.367154	8.98326359832636	2.0	2	0.7071067811865476	0.7071067811865476
1599082090.9312625	1599082090.9312625	9.02092050209205	3.0	3	0.8660254037844386	0.8660254037844386
1599082091.4588733	1599082091.4588733	9.05857740585774	3.0	3	0.8660254037844386	0.8660254037844386
1599082092.034805	1599082092.034805	9.096234309623432	1.0	1	0.5	0.5
1599082092.5459096	1599082092.5459096	9.133891213389122	2.0	2	0.7071067811865476	0.7071067811865476
1599082093.115213	1599082093.115213	9.171548117154812	3.0	3	0.8660254037844386	0.8660254037844386
1599082093.6527848	1599082093.6527848	9.209205020920502	2.0	2	0.7071067811865476	0.7071067811865476
1599082094.225951	1599082094.225951	9.246861924686193	2.0	2	0.7071067811865476	0.7071067811865476
1599082094.734698	1599082094.734698	9.284518828451883	3.0	3	0.8660254037844386	0.8660254037844386
1599082095.3073914	1599082095.3073914	9.322175732217573	3.0	3	0.8660254037844386	0.8660254037844386
1599082095.8531706	1599082095.8531706	9.359832635983263	2.0	2	0.7071067811865476	0.7071067811865476
1599082096.404757	1599082096.404757	9.397489539748955	1.0	1	0.5	0.5
1599082096.9436128	1599082096.9436128	9.435146443514645	0.0	0	0	0.5
1599082097.5021455	1599082097.5021455	9.472803347280335	0.0	0	0	0.5
1599082097.9800692	1599082097.9800692	9.510460251046025	4.0	4	1.0	1.0
1599082098.5111392	1599082098.5111392	9.548117154811715	0.0	0	0	0.5
1599082098.9698055	1599082098.9698055	9.585774058577407	0.0	0	0	0.5
1599082099.4723203	1599082099.4723203	9.623430962343097	0.0	0	0	0.5
1599082099.955115	1599082099.955115	9.661087866108787	3.0	3	0.8660254037844386	0.8660254037844386
1599082100.4627218	1599082100.4627218	9.698744769874477	1.0	1	0.5	0.5
1599082100.9337387	1599082100.9337387	9.736401673640168	1.0	1	0.5	0.5
1599082101.9014537	1599082101.9014537	9.774058577405858	0.0	0	0	0.5
1599082102.0034163	1599082102.0034163	9.811715481171548	1.0	1	0.5	0.5
1599082102.443147	1599082102.443147	9.849372384937238	0.0	0	0	0.5
1599082102.9100785	1599082102.9100785	9.887029288702928	1.0	1	0.5	0.5
1599082103.429777	1599082103.429777	9.92468619246862	3.0	3	0.8660254037844386	0.8660254037844386
1599082103.893913	1599082103.893913	9.96234309623431	0.0	0	0	0.5
1599082104.3875132	1599082104.3875132	10.0	2.0	2	0.7071067811865476	0.7071067811865476