# <?xml version="1.0" ?>
# <DataFileHeader>
#   <Variables>
#     <Element name="PulseProgram" type="dict">
#       <Element name="PulseProgram" type="str">C:/Users/ions/Documents/IonControl/project_dir/QuditLab/config/PulseProgramsPlus/Ablation_NeutralFluorescence.ppp</Element>
#       <Element name="NULL" type="Quantity">0</Element>
#       <Element name="FFFFFFFF" type="Quantity">18446744073709551615</Element>
#       <Element name="INTERRUPT_EXITCODE" type="Quantity">18446198715942174720</Element>
#       <Element name="InitializationShutter" type="int">5122</Element>
#       <Element name="NaturalAblation_mask" type="int">256</Element>
#       <Element name="NaturalAblation" type="int">256</Element>
#       <Element name="EndShutter" type="int">5122</Element>
#       <Element name="ShutterDelayTime" type="Quantity">0.5 s</Element>
#       <Element name="WindowStartTime" type="Quantity">145 us</Element>
#       <Element name="DetectTime" type="Quantity">20 us</Element>
#       <Element name="DummyVar" type="int">0</Element>
#       <Element name="experiments" type="int">1</Element>
#       <Element name="DetectCounters" type="int">1</Element>
#       <Element name="endLabel" type="Quantity">18446744073709551615</Element>
#       <Element name="experimentsleft" type="Quantity">100</Element>
#       <Element name="currentexperiment" type="Quantity">0</Element>
#       <Element name="inlinevar_1" type="Quantity">1</Element>
#     </Element>
#     <Element name="Scan" type="dict">
#       <Element name="scanParameter" type="str">DummyVar</Element>
#       <Element name="scanTarget" type="str">Internal</Element>
#       <Element name="scantype" type="int">0</Element>
#       <Element name="scanMode" type="int">0</Element>
#       <Element name="xUnit" type="str"></Element>
#       <Element name="xExpression" type="str"></Element>
#       <Element name="loadPP" type="bool">True</Element>
#       <Element name="loadPPName" type="str">Ablation_NeutralFluorescence_Rad.ppp</Element>
#       <Element name="parallelInternalScanParameter" type="str">None</Element>
#     </Element>
#     <ColumnSpec>timeTickFirst, timeTickLast, x, PMT Count, PMT Count_raw, PMT Count_bottom, PMT Count_top</ColumnSpec>
#     <Element name="comment" type="str"></Element>
#     <Element name="lastDataAquired" type="datetime">2020-09-02 21:22:13.559539+00:00</Element>
#     <Element name="name" type="str"></Element>
#     <Element name="traceCreation" type="datetime">2020-09-02 21:21:29.549712+00:00</Element>
#     <Element name="traceFinalized" type="datetime">2020-09-02 21:22:14.077685+00:00</Element>
#     <TracePlottingList>
#       <TracePlotting _bottomColumn="PMT Count_bottom" _filtColumn="None" _fitFunction="None" _heightColumn="height" _rawColumn="PMT Count_raw" _topColumn="PMT Count_top" _xColumn="x" _yColumn="PMT Count" fill="True" name="PMT Count" properties="&lt;trace.PlottedTrace.PlottedTraceProperties object at 0x000001B57E1EBD68&gt;" style="0" type="0" windowName="Scan Data" xAxisLabel="DummyVar" xAxisUnit="" yAxisLabel="None">
#         <PlottedTraceProperties averageSameX="False" averageType="0" combinePoints="0"/>
#       </TracePlotting>
#     </TracePlottingList>
#   </Variables>
# </DataFileHeader>
1599081688.7523866	1599081688.7523866	1.0	0.0	0	0	0.5
1599081689.5454423	1599081689.5454423	1.0376569037656904	0.0	0	0	0.5
1599081689.9378114	1599081689.9378114	1.0753138075313808	0.0	0	0	0.5
1599081690.327935	1599081690.327935	1.112970711297071	0.0	0	0	0.5
1599081690.450109	1599081690.450109	1.1506276150627615	0.0	0	0	0.5
1599081690.834275	1599081690.834275	1.1882845188284519	0.0	0	0	0.5
1599081691.1322267	1599081691.1322267	1.2259414225941423	0.0	0	0	0.5
1599081691.4934795	1599081691.4934795	1.2635983263598327	0.0	0	0	0.5
1599081691.7750702	1599081691.7750702	1.301255230125523	0.0	0	0	0.5
1599081692.1192563	1599081692.1192563	1.3389121338912133	0.0	0	0	0.5
1599081692.4490743	1599081692.4490743	1.3765690376569037	0.0	0	0	0.5
1599081693.005858	1599081693.005858	1.4142259414225942	1.0	1	0.5	0.5
1599081693.1713488	1599081693.1713488	1.4518828451882846	0.0	0	0	0.5
1599081693.5917115	1599081693.5917115	1.489539748953975	0.0	0	0	0.5
1599081693.9214706	1599081693.9214706	1.5271966527196654	0.0	0	0	0.5
1599081694.2993655	1599081694.2993655	1.5648535564853556	1.0	1	0.5	0.5
1599081694.6482506	1599081694.6482506	1.602510460251046	1.0	1	0.5	0.5
1599081695.0075223	1599081695.0075223	1.6401673640167365	0.0	0	0	0.5
1599081695.3836083	1599081695.3836083	1.6778242677824267	0.0	0	0	0.5
1599081695.7566025	1599081695.7566025	1.715481171548117	0.0	0	0	0.5
1599081696.1184382	1599081696.1184382	1.7531380753138075	0.0	0	0	0.5
1599081696.5001297	1599081696.5001297	1.790794979079498	0.0	0	0	0.5
1599081696.8508325	1599081696.8508325	1.8284518828451883	0.0	0	0	0.5
1599081697.2177	1599081697.2177	1.8661087866108788	0.0	0	0	0.5
1599081697.590049	1599081697.590049	1.9037656903765692	0.0	0	0	0.5
1599081697.9713767	1599081697.9713767	1.9414225941422596	0.0	0	0	0.5
1599081698.3211074	1599081698.3211074	1.9790794979079498	0.0	0	0	0.5
1599081698.7142656	1599081698.7142656	2.01673640167364	0.0	0	0	0.5
1599081699.0550892	1599081699.0550892	2.054393305439331	0.0	0	0	0.5
1599081699.4446714	1599081699.4446714	2.092050209205021	0.0	0	0	0.5
1599081699.803389	1599081699.803389	2.1297071129707112	0.0	0	0	0.5
1599081700.188176	1599081700.188176	2.1673640167364017	0.0	0	0	0.5
1599081700.5964873	1599081700.5964873	2.205020920502092	0.0	0	0	0.5
1599081701.016573	1599081701.016573	2.2426778242677825	0.0	0	0	0.5
1599081701.4060562	1599081701.4060562	2.280334728033473	0.0	0	0	0.5
1599081701.823119	1599081701.823119	2.3179916317991633	0.0	0	0	0.5
1599081702.218593	1599081702.218593	2.3556485355648533	1.0	1	0.5	0.5
1599081702.630315	1599081702.630315	2.393305439330544	0.0	0	0	0.5
1599081703.0218468	1599081703.0218468	2.430962343096234	0.0	0	0	0.5
1599081703.4428892	1599081703.4428892	2.468619246861925	0.0	0	0	0.5
1599081703.836064	1599081703.836064	2.506276150627615	0.0	0	0	0.5
1599081704.2536523	1599081704.2536523	2.5439330543933054	0.0	0	0	0.5
1599081704.648346	1599081704.648346	2.581589958158996	0.0	0	0	0.5
1599081705.0591223	1599081705.0591223	2.6192468619246863	0.0	0	0	0.5
1599081705.4542305	1599081705.4542305	2.6569037656903767	0.0	0	0	0.5
1599081705.871964	1599081705.871964	2.694560669456067	0.0	0	0	0.5
1599081706.2647521	1599081706.2647521	2.7322175732217575	1.0	1	0.5	0.5
1599081707.1064801	1599081707.1064801	2.7698744769874475	0.0	0	0	0.5
1599081707.1521256	1599081707.1521256	2.8075313807531384	0.0	0	0	0.5
1599081707.487219	1599081707.487219	2.8451882845188283	0.0	0	0	0.5
1599081707.9416049	1599081707.9416049	2.882845188284519	0.0	0	0	0.5
1599081708.3204901	1599081708.3204901	2.920502092050209	0.0	0	0	0.5
1599081708.803621	1599081708.803621	2.9581589958158996	0.0	0	0	0.5
1599081709.2227921	1599081709.2227921	2.99581589958159	0.0	0	0	0.5
1599081709.6509848	1599081709.6509848	3.0334728033472804	0.0	0	0	0.5
1599081710.093312	1599081710.093312	3.071129707112971	0.0	0	0	0.5
1599081710.5415092	1599081710.5415092	3.1087866108786613	0.0	0	0	0.5
1599081710.985809	1599081710.985809	3.1464435146443517	0.0	0	0	0.5
1599081711.4292066	1599081711.4292066	3.184100418410042	1.0	1	0.5	0.5
1599081711.8961897	1599081711.8961897	3.221757322175732	0.0	0	0	0.5
1599081712.345277	1599081712.345277	3.2594142259414225	0.0	0	0	0.5
1599081712.7699597	1599081712.7699597	3.297071129707113	0.0	0	0	0.5
1599081713.21242	1599081713.21242	3.3347280334728033	0.0	0	0	0.5
1599081713.6720366	1599081713.6720366	3.3723849372384938	0.0	0	0	0.5
1599081714.0993717	1599081714.0993717	3.410041841004184	0.0	0	0	0.5
1599081714.5530527	1599081714.5530527	3.4476987447698746	0.0	0	0	0.5
1599081714.990058	1599081714.990058	3.485355648535565	0.0	0	0	0.5
1599081715.4456537	1599081715.4456537	3.5230125523012554	0.0	0	0	0.5
1599081715.8832846	1599081715.8832846	3.560669456066946	0.0	0	0	0.5
1599081716.335574	1599081716.335574	3.5983263598326363	0.0	0	0	0.5
1599081716.7750382	1599081716.7750382	3.6359832635983262	0.0	0	0	0.5
1599081717.2546897	1599081717.2546897	3.6736401673640167	0.0	0	0	0.5
1599081717.7414272	1599081717.7414272	3.711297071129707	0.0	0	0	0.5
1599081718.248171	1599081718.248171	3.7489539748953975	0.0	0	0	0.5
1599081718.7285604	1599081718.7285604	3.786610878661088	0.0	0	0	0.5
1599081719.2135203	1599081719.2135203	3.8242677824267783	0.0	0	0	0.5
1599081719.6979227	1599081719.6979227	3.8619246861924688	1.0	1	0.5	0.5
1599081720.199776	1599081720.199776	3.899581589958159	0.0	0	0	0.5
1599081720.6917052	1599081720.6917052	3.9372384937238496	0.0	0	0	0.5
1599081721.178275	1599081721.178275	3.97489539748954	0.0	0	0	0.5
1599081721.6639783	1599081721.6639783	4.01255230125523	0.0	0	0	0.5
1599081722.2081823	1599081722.2081823	4.05020920502092	0.0	0	0	0.5
1599081722.647593	1599081722.647593	4.087866108786611	0.0	0	0	0.5
1599081723.1502254	1599081723.1502254	4.125523012552302	0.0	0	0	0.5
1599081723.6223912	1599081723.6223912	4.163179916317992	0.0	0	0	0.5
1599081724.1303854	1599081724.1303854	4.200836820083682	0.0	0	0	0.5
1599081724.6042266	1599081724.6042266	4.2384937238493725	0.0	0	0	0.5
1599081725.0955539	1599081725.0955539	4.276150627615063	0.0	0	0	0.5
1599081725.58047	1599081725.58047	4.313807531380753	0.0	0	0	0.5
1599081726.0694835	1599081726.0694835	4.351464435146443	0.0	0	0	0.5
1599081726.5620859	1599081726.5620859	4.389121338912134	0.0	0	0	0.5
1599081727.1005373	1599081727.1005373	4.426778242677824	0.0	0	0	0.5
1599081727.6253848	1599081727.6253848	4.464435146443515	0.0	0	0	0.5
1599081728.172498	1599081728.172498	4.502092050209205	0.0	0	0	0.5
1599081728.7085726	1599081728.7085726	4.539748953974895	0.0	0	0	0.5
1599081729.2462764	1599081729.2462764	4.577405857740586	0.0	0	0	0.5
1599081729.778416	1599081729.778416	4.615062761506277	0.0	0	0	0.5
1599081730.3254807	1599081730.3254807	4.652719665271967	0.0	0	0	0.5
1599081730.8639119	1599081730.8639119	4.690376569037657	0.0	0	0	0.5
1599081731.4029293	1599081731.4029293	4.7280334728033475	0.0	0	0	0.5
1599081731.9362147	1599081731.9362147	4.765690376569038	0.0	0	0	0.5
1599081732.5058322	1599081732.5058322	4.803347280334728	0.0	0	0	0.5
1599081733.0164163	1599081733.0164163	4.841004184100418	0.0	0	0	0.5