# <?xml version="1.0" ?>
# <DataFileHeader>
#   <Variables>
#     <Element name="PulseProgram" type="dict">
#       <Element name="PulseProgram" type="str">C:/Users/ions/Documents/IonControl/project_dir/QuditLab/config/PulseProgramsPlus/Ablation_NeutralFluorescence.ppp</Element>
#       <Element name="NULL" type="Quantity">0</Element>
#       <Element name="FFFFFFFF" type="Quantity">18446744073709551615</Element>
#       <Element name="INTERRUPT_EXITCODE" type="Quantity">18446198715942174720</Element>
#       <Element name="InitializationShutter" type="int">5122</Element>
#       <Element name="NaturalAblation_mask" type="int">256</Element>
#       <Element name="NaturalAblation" type="int">256</Element>
#       <Element name="EndShutter" type="int">5122</Element>
#       <Element name="ShutterDelayTime" type="Quantity">0.5 s</Element>
#       <Element name="WindowStartTime" type="Quantity">145 us</Element>
#       <Element name="DetectTime" type="Quantity">20 us</Element>
#       <Element name="DummyVar" type="int">0</Element>
#       <Element name="experiments" type="int">1</Element>
#       <Element name="DetectCounters" type="int">1</Element>
#       <Element name="endLabel" type="Quantity">18446744073709551615</Element>
#       <Element name="experimentsleft" type="Quantity">100</Element>
#       <Element name="currentexperiment" type="Quantity">0</Element>
#       <Element name="inlinevar_1" type="Quantity">1</Element>
#     </Element>
#     <Element name="Scan" type="dict">
#       <Element name="scanParameter" type="str">DummyVar</Element>
#       <Element name="scanTarget" type="str">Internal</Element>
#       <Element name="scantype" type="int">0</Element>
#       <Element name="scanMode" type="int">0</Element>
#       <Element name="xUnit" type="str"></Element>
#       <Element name="xExpression" type="str"></Element>
#       <Element name="loadPP" type="bool">True</Element>
#       <Element name="loadPPName" type="str">Ablation_NeutralFluorescence_Rad.ppp</Element>
#       <Element name="parallelInternalScanParameter" type="str">None</Element>
#     </Element>
#     <ColumnSpec>timeTickFirst, timeTickLast, x, PMT Count, PMT Count_raw, PMT Count_bottom, PMT Count_top</ColumnSpec>
#     <Element name="comment" type="str"></Element>
#     <Element name="lastDataAquired" type="datetime">2020-09-02 21:21:00.452714+00:00</Element>
#     <Element name="name" type="str"></Element>
#     <Element name="traceCreation" type="datetime">2020-09-02 21:19:02.895425+00:00</Element>
#     <Element name="traceFinalized" type="datetime">2020-09-02 21:21:00.971331+00:00</Element>
#     <TracePlottingList>
#       <TracePlotting _bottomColumn="PMT Count_bottom" _filtColumn="None" _fitFunction="None" _heightColumn="height" _rawColumn="PMT Count_raw" _topColumn="PMT Count_top" _xColumn="x" _yColumn="PMT Count" fill="True" name="PMT Count" properties="&lt;trace.PlottedTrace.PlottedTraceProperties object at 0x000001B50A689668&gt;" style="0" type="0" windowName="Scan Data" xAxisLabel="DummyVar" xAxisUnit="" yAxisLabel="None">
#         <PlottedTraceProperties averageSameX="False" averageType="0" combinePoints="0"/>
#       </TracePlotting>
#     </TracePlottingList>
#   </Variables>
# </DataFileHeader>
1599081542.0435183	1599081542.0435183	1.0	1.0	1	0.5	0.5
1599081542.8936474	1599081542.8936474	1.0376569037656904	1.0	1	0.5	0.5
1599081543.3247995	1599081543.3247995	1.0753138075313808	1.0	1	0.5	0.5
1599081543.6857445	1599081543.6857445	1.112970711297071	5.0	5	1.118033988749895	1.118033988749895
1599081544.0550716	1599081544.0550716	1.1506276150627615	2.0	2	0.7071067811865476	0.7071067811865476
1599081544.426564	1599081544.426564	1.1882845188284519	2.0	2	0.7071067811865476	0.7071067811865476
1599081544.788072	1599081544.788072	1.2259414225941423	2.0	2	0.7071067811865476	0.7071067811865476
1599081545.142821	1599081545.142821	1.2635983263598327	0.0	0	0	0.5
1599081545.4912157	1599081545.4912157	1.301255230125523	3.0	3	0.8660254037844386	0.8660254037844386
1599081545.8349495	1599081545.8349495	1.3389121338912133	2.0	2	0.7071067811865476	0.7071067811865476
1599081546.2081678	1599081546.2081678	1.3765690376569037	0.0	0	0	0.5
1599081546.5765352	1599081546.5765352	1.4142259414225942	1.0	1	0.5	0.5
1599081546.9260173	1599081546.9260173	1.4518828451882846	2.0	2	0.7071067811865476	0.7071067811865476
1599081547.2933662	1599081547.2933662	1.489539748953975	0.0	0	0	0.5
1599081547.6448731	1599081547.6448731	1.5271966527196654	1.0	1	0.5	0.5
1599081547.9907553	1599081547.9907553	1.5648535564853556	2.0	2	0.7071067811865476	0.7071067811865476
1599081548.3732736	1599081548.3732736	1.602510460251046	0.0	0	0	0.5
1599081548.6995049	1599081548.6995049	1.6401673640167365	0.0	0	0	0.5
1599081549.0747428	1599081549.0747428	1.6778242677824267	3.0	3	0.8660254037844386	0.8660254037844386
1599081549.4491322	1599081549.4491322	1.715481171548117	1.0	1	0.5	0.5
1599081549.8042214	1599081549.8042214	1.7531380753138075	1.0	1	0.5	0.5
1599081550.1701174	1599081550.1701174	1.790794979079498	2.0	2	0.7071067811865476	0.7071067811865476
1599081550.5124354	1599081550.5124354	1.8284518828451883	1.0	1	0.5	0.5
1599081550.8786168	1599081550.8786168	1.8661087866108788	1.0	1	0.5	0.5
1599081551.2514699	1599081551.2514699	1.9037656903765692	2.0	2	0.7071067811865476	0.7071067811865476
1599081551.6471217	1599081551.6471217	1.9414225941422596	3.0	3	0.8660254037844386	0.8660254037844386
1599081552.0407794	1599081552.0407794	1.9790794979079498	1.0	1	0.5	0.5
1599081552.5084732	1599081552.5084732	2.01673640167364	0.0	0	0	0.5
1599081552.8285897	1599081552.8285897	2.054393305439331	1.0	1	0.5	0.5
1599081553.2259502	1599081553.2259502	2.092050209205021	1.0	1	0.5	0.5
1599081553.6112266	1599081553.6112266	2.1297071129707112	3.0	3	0.8660254037844386	0.8660254037844386
1599081553.9949517	1599081553.9949517	2.1673640167364017	1.0	1	0.5	0.5
1599081554.422483	1599081554.422483	2.205020920502092	5.0	5	1.118033988749895	1.118033988749895
1599081554.8249583	1599081554.8249583	2.2426778242677825	1.0	1	0.5	0.5
1599081555.2102523	1599081555.2102523	2.280334728033473	2.0	2	0.7071067811865476	0.7071067811865476
1599081555.596967	1599081555.596967	2.3179916317991633	3.0	3	0.8660254037844386	0.8660254037844386
1599081555.9858887	1599081555.9858887	2.3556485355648533	0.0	0	0	0.5
1599081556.3705728	1599081556.3705728	2.393305439330544	1.0	1	0.5	0.5
1599081556.770803	1599081556.770803	2.430962343096234	1.0	1	0.5	0.5
1599081557.1714926	1599081557.1714926	2.468619246861925	1.0	1	0.5	0.5
1599081557.5701659	1599081557.5701659	2.506276150627615	1.0	1	0.5	0.5
1599081557.9693394	1599081557.9693394	2.5439330543933054	1.0	1	0.5	0.5
1599081558.349738	1599081558.349738	2.581589958158996	0.0	0	0	0.5
1599081558.7523148	1599081558.7523148	2.6192468619246863	1.0	1	0.5	0.5
1599081559.150768	1599081559.150768	2.6569037656903767	0.0	0	0	0.5
1599081559.580278	1599081559.580278	2.694560669456067	2.0	2	0.7071067811865476	0.7071067811865476
1599081560.0185957	1599081560.0185957	2.7322175732217575	3.0	3	0.8660254037844386	0.8660254037844386
1599081560.4441934	1599081560.4441934	2.7698744769874475	1.0	1	0.5	0.5
1599081560.9000685	1599081560.9000685	2.8075313807531384	3.0	3	0.8660254037844386	0.8660254037844386
1599081561.3401372	1599081561.3401372	2.8451882845188283	0.0	0	0	0.5
1599081561.7645502	1599081561.7645502	2.882845188284519	1.0	1	0.5	0.5
1599081562.2200007	1599081562.2200007	2.920502092050209	3.0	3	0.8660254037844386	0.8660254037844386
1599081562.6273732	1599081562.6273732	2.9581589958158996	2.0	2	0.7071067811865476	0.7071067811865476
1599081563.0684314	1599081563.0684314	2.99581589958159	2.0	2	0.7071067811865476	0.7071067811865476
1599081563.5184836	1599081563.5184836	3.0334728033472804	0.0	0	0	0.5
1599081563.921726	1599081563.921726	3.071129707112971	2.0	2	0.7071067811865476	0.7071067811865476
1599081564.612955	1599081564.612955	3.1087866108786613	0.0	0	0	0.5
1599081564.790271	1599081564.790271	3.1464435146443517	3.0	3	0.8660254037844386	0.8660254037844386
1599081565.2260177	1599081565.2260177	3.184100418410042	2.0	2	0.7071067811865476	0.7071067811865476
1599081565.6700056	1599081565.6700056	3.221757322175732	0.0	0	0	0.5
1599081566.095512	1599081566.095512	3.2594142259414225	2.0	2	0.7071067811865476	0.7071067811865476
1599081566.5620446	1599081566.5620446	3.297071129707113	1.0	1	0.5	0.5
1599081566.9662657	1599081566.9662657	3.3347280334728033	1.0	1	0.5	0.5
1599081567.415876	1599081567.415876	3.3723849372384938	3.0	3	0.8660254037844386	0.8660254037844386
1599081567.8589544	1599081567.8589544	3.410041841004184	0.0	0	0	0.5
1599081568.3256674	1599081568.3256674	3.4476987447698746	2.0	2	0.7071067811865476	0.7071067811865476
1599081568.8264885	1599081568.8264885	3.485355648535565	1.0	1	0.5	0.5
1599081569.2813652	1599081569.2813652	3.5230125523012554	1.0	1	0.5	0.5
1599081569.7512884	1599081569.7512884	3.560669456066946	1.0	1	0.5	0.5
1599081570.286214	1599081570.286214	3.5983263598326363	3.0	3	0.8660254037844386	0.8660254037844386
1599081570.7115188	1599081570.7115188	3.6359832635983262	0.0	0	0	0.5
1599081571.201522	1599081571.201522	3.6736401673640167	3.0	3	0.8660254037844386	0.8660254037844386
1599081571.662548	1599081571.662548	3.711297071129707	0.0	0	0	0.5
1599081572.155856	1599081572.155856	3.7489539748953975	1.0	1	0.5	0.5
1599081572.6369755	1599081572.6369755	3.786610878661088	3.0	3	0.8660254037844386	0.8660254037844386
1599081573.1258423	1599081573.1258423	3.8242677824267783	1.0	1	0.5	0.5
1599081573.5811694	1599081573.5811694	3.8619246861924688	0.0	0	0	0.5
1599081574.0729396	1599081574.0729396	3.899581589958159	6.0	6	1.224744871391589	1.224744871391589
1599081574.5331674	1599081574.5331674	3.9372384937238496	1.0	1	0.5	0.5
1599081575.0217192	1599081575.0217192	3.97489539748954	0.0	0	0	0.5
1599081575.490804	1599081575.490804	4.01255230125523	2.0	2	0.7071067811865476	0.7071067811865476
1599081575.971299	1599081575.971299	4.05020920502092	1.0	1	0.5	0.5
1599081576.435663	1599081576.435663	4.087866108786611	0.0	0	0	0.5
1599081576.9045885	1599081576.9045885	4.125523012552302	1.0	1	0.5	0.5
1599081577.4310634	1599081577.4310634	4.163179916317992	3.0	3	0.8660254037844386	0.8660254037844386
1599081577.9787686	1599081577.9787686	4.200836820083682	0.0	0	0	0.5
1599081578.4596503	1599081578.4596503	4.2384937238493725	1.0	1	0.5	0.5
1599081578.9976397	1599081578.9976397	4.276150627615063	1.0	1	0.5	0.5
1599081579.5193183	1599081579.5193183	4.313807531380753	0.0	0	0	0.5
1599081580.1103392	1599081580.1103392	4.351464435146443	2.0	2	0.7071067811865476	0.7071067811865476
1599081580.5783992	1599081580.5783992	4.389121338912134	1.0	1	0.5	0.5
1599081581.1090007	1599081581.1090007	4.426778242677824	2.0	2	0.7071067811865476	0.7071067811865476
1599081581.6185148	1599081581.6185148	4.464435146443515	1.0	1	0.5	0.5
1599081582.1338618	1599081582.1338618	4.502092050209205	2.0	2	0.7071067811865476	0.7071067811865476
1599081582.6990871	1599081582.6990871	4.539748953974895	3.0	3	0.8660254037844386	0.8660254037844386
1599081583.1941953	1599081583.1941953	4.577405857740586	0.0	0	0	0.5
1599081583.7158134	1599081583.7158134	4.615062761506277	1.0	1	0.5	0.5
1599081584.2552307	1599081584.2552307	4.652719665271967	0.0	0	0	0.5
1599081584.7779956	1599081584.7779956	4.690376569037657	0.0	0	0	0.5
1599081585.3167489	1599081585.3167489	4.7280334728033475	0.0	0	0	0.5
1599081585.8437057	1599081585.8437057	4.765690376569038	1.0	1	0.5	0.5
1599081586.3460333	1599081586.3460333	4.803347280334728	2.0	2	0.7071067811865476	0.7071067811865476
1599081586.868405	1599081586.868405	4.841004184100418	3.0	3	0.8660254037844386	0.8660254037844386
1599081587.403761	1599081587.403761	4.878661087866108	2.0	2	0.7071067811865476	0.7071067811865476
1599081587.9492145	1599081587.9492145	4.916317991631799	1.0	1	0.5	0.5
1599081588.5295126	1599081588.5295126	4.95397489539749	4.0	4	1.0	1.0
1599081589.1038923	1599081589.1038923	4.99163179916318	3.0	3	0.8660254037844386	0.8660254037844386
1599081589.6866207	1599081589.6866207	5.02928870292887	1.0	1	0.5	0.5
1599081590.2609434	1599081590.2609434	5.066945606694561	0.0	0	0	0.5
1599081590.8492966	1599081590.8492966	5.104602510460251	3.0	3	0.8660254037844386	0.8660254037844386
1599081591.4183903	1599081591.4183903	5.142259414225942	0.0	0	0	0.5
1599081592.002513	1599081592.002513	5.179916317991632	2.0	2	0.7071067811865476	0.7071067811865476
1599081592.5657632	1599081592.5657632	5.2175732217573225	0.0	0	0	0.5
1599081593.1597607	1599081593.1597607	5.2552301255230125	2.0	2	0.7071067811865476	0.7071067811865476
1599081593.732221	1599081593.732221	5.292887029288703	2.0	2	0.7071067811865476	0.7071067811865476
1599081594.3129609	1599081594.3129609	5.330543933054393	0.0	0	0	0.5
1599081594.8719628	1599081594.8719628	5.368200836820084	2.0	2	0.7071067811865476	0.7071067811865476
1599081595.4848886	1599081595.4848886	5.405857740585774	3.0	3	0.8660254037844386	0.8660254037844386
1599081596.0446248	1599081596.0446248	5.443514644351464	0.0	0	0	0.5
1599081596.6876953	1599081596.6876953	5.481171548117155	3.0	3	0.8660254037844386	0.8660254037844386
1599081597.4850128	1599081597.4850128	5.518828451882845	2.0	2	0.7071067811865476	0.7071067811865476
1599081597.8020031	1599081597.8020031	5.556485355648536	1.0	1	0.5	0.5
1599081598.4360602	1599081598.4360602	5.594142259414226	3.0	3	0.8660254037844386	0.8660254037844386
1599081599.0301232	1599081599.0301232	5.631799163179917	2.0	2	0.7071067811865476	0.7071067811865476
1599081599.6147127	1599081599.6147127	5.669456066945607	2.0	2	0.7071067811865476	0.7071067811865476
1599081600.2712724	1599081600.2712724	5.7071129707112975	1.0	1	0.5	0.5
1599081600.9014285	1599081600.9014285	5.7447698744769875	1.0	1	0.5	0.5
1599081601.6261425	1599081601.6261425	5.782426778242678	1.0	1	0.5	0.5
1599081602.2780702	1599081602.2780702	5.820083682008368	0.0	0	0	0.5
1599081603.143439	1599081603.143439	5.857740585774058	1.0	1	0.5	0.5
1599081603.4261518	1599081603.4261518	5.895397489539749	0.0	0	0	0.5
1599081604.116283	1599081604.116283	5.933054393305439	1.0	1	0.5	0.5
1599081605.5964398	1599081605.5964398	5.97071129707113	3.0	3	0.8660254037844386	0.8660254037844386
1599081605.7103403	1599081605.7103403	6.00836820083682	1.0	1	0.5	0.5
1599081606.4955688	1599081606.4955688	6.046025104602511	0.0	0	0	0.5
1599081607.193881	1599081607.193881	6.083682008368201	2.0	2	0.7071067811865476	0.7071067811865476
1599081607.515056	1599081607.515056	6.121338912133892	0.0	0	0	0.5
1599081608.5796363	1599081608.5796363	6.158995815899582	2.0	2	0.7071067811865476	0.7071067811865476
1599081609.313514	1599081609.313514	6.1966527196652725	2.0	2	0.7071067811865476	0.7071067811865476
1599081609.574389	1599081609.574389	6.2343096234309625	2.0	2	0.7071067811865476	0.7071067811865476
1599081610.3886921	1599081610.3886921	6.2719665271966525	1.0	1	0.5	0.5
1599081610.9762151	1599081610.9762151	6.309623430962343	0.0	0	0	0.5
1599081611.7715409	1599081611.7715409	6.347280334728033	2.0	2	0.7071067811865476	0.7071067811865476
1599081612.0125067	1599081612.0125067	6.384937238493724	1.0	1	0.5	0.5
1599081612.537687	1599081612.537687	6.422594142259414	1.0	1	0.5	0.5
1599081613.3330793	1599081613.3330793	6.460251046025105	2.0	2	0.7071067811865476	0.7071067811865476
1599081613.7115169	1599081613.7115169	6.497907949790795	2.0	2	0.7071067811865476	0.7071067811865476
1599081614.5573683	1599081614.5573683	6.535564853556486	0.0	0	0	0.5
1599081615.3086698	1599081615.3086698	6.573221757322176	2.0	2	0.7071067811865476	0.7071067811865476
1599081616.0851138	1599081616.0851138	6.610878661087867	2.0	2	0.7071067811865476	0.7071067811865476
1599081616.4893813	1599081616.4893813	6.648535564853557	3.0	3	0.8660254037844386	0.8660254037844386
1599081617.2804282	1599081617.2804282	6.686192468619247	2.0	2	0.7071067811865476	0.7071067811865476
1599081617.8599908	1599081617.8599908	6.7238493723849375	1.0	1	0.5	0.5
1599081618.8612819	1599081618.8612819	6.7615062761506275	1.0	1	0.5	0.5
1599081619.2885473	1599081619.2885473	6.799163179916318	2.0	2	0.7071067811865476	0.7071067811865476
1599081620.1323724	1599081620.1323724	6.836820083682008	1.0	1	0.5	0.5
1599081621.0009677	1599081621.0009677	6.874476987447699	3.0	3	0.8660254037844386	0.8660254037844386
1599081621.4275994	1599081621.4275994	6.912133891213389	0.0	0	0	0.5
1599081622.4356582	1599081622.4356582	6.94979079497908	2.0	2	0.7071067811865476	0.7071067811865476
1599081622.9099362	1599081622.9099362	6.98744769874477	2.0	2	0.7071067811865476	0.7071067811865476
1599081623.5958266	1599081623.5958266	7.02510460251046	1.0	1	0.5	0.5
1599081624.3758492	1599081624.3758492	7.062761506276151	1.0	1	0.5	0.5
1599081625.1472974	1599081625.1472974	7.100418410041841	1.0	1	0.5	0.5
1599081625.698491	1599081625.698491	7.138075313807532	0.0	0	0	0.5
1599081626.3548791	1599081626.3548791	7.175732217573222	1.0	1	0.5	0.5
1599081627.0953934	1599081627.0953934	7.2133891213389125	1.0	1	0.5	0.5
1599081627.8111222	1599081627.8111222	7.2510460251046025	4.0	4	1.0	1.0
1599081628.2087288	1599081628.2087288	7.288702928870293	1.0	1	0.5	0.5
1599081628.7367618	1599081628.7367618	7.326359832635983	1.0	1	0.5	0.5
1599081629.487777	1599081629.487777	7.364016736401674	0.0	0	0	0.5
1599081630.097156	1599081630.097156	7.401673640167364	1.0	1	0.5	0.5
1599081630.7064586	1599081630.7064586	7.439330543933054	3.0	3	0.8660254037844386	0.8660254037844386
1599081631.4897995	1599081631.4897995	7.476987447698745	2.0	2	0.7071067811865476	0.7071067811865476
1599081631.913051	1599081631.913051	7.514644351464435	3.0	3	0.8660254037844386	0.8660254037844386
1599081632.8368368	1599081632.8368368	7.552301255230126	2.0	2	0.7071067811865476	0.7071067811865476
1599081633.2562504	1599081633.2562504	7.589958158995816	1.0	1	0.5	0.5
1599081633.7931976	1599081633.7931976	7.627615062761507	1.0	1	0.5	0.5
1599081634.825326	1599081634.825326	7.665271966527197	0.0	0	0	0.5
1599081635.2055652	1599081635.2055652	7.7029288702928875	2.0	2	0.7071067811865476	0.7071067811865476
1599081635.759951	1599081635.759951	7.7405857740585775	1.0	1	0.5	0.5
1599081636.314509	1599081636.314509	7.778242677824268	1.0	1	0.5	0.5
1599081637.2258813	1599081637.2258813	7.815899581589958	2.0	2	0.7071067811865476	0.7071067811865476
1599081637.576591	1599081637.576591	7.853556485355648	5.0	5	1.118033988749895	1.118033988749895
1599081638.4917815	1599081638.4917815	7.891213389121339	0.0	0	0	0.5
1599081638.8598175	1599081638.8598175	7.928870292887029	0.0	0	0	0.5
1599081639.684404	1599081639.684404	7.96652719665272	0.0	0	0	0.5
1599081640.0252707	1599081640.0252707	8.00418410041841	3.0	3	0.8660254037844386	0.8660254037844386
1599081640.735638	1599081640.735638	8.0418410041841	2.0	2	0.7071067811865476	0.7071067811865476
1599081641.1563697	1599081641.1563697	8.07949790794979	0.0	0	0	0.5
1599081641.7742887	1599081641.7742887	8.117154811715482	5.0	5	1.118033988749895	1.118033988749895
1599081642.506846	1599081642.506846	8.154811715481172	1.0	1	0.5	0.5
1599081642.9476163	1599081642.9476163	8.192468619246863	2.0	2	0.7071067811865476	0.7071067811865476
1599081643.5724046	1599081643.5724046	8.230125523012553	1.0	1	0.5	0.5
1599081644.0344372	1599081644.0344372	8.267782426778243	1.0	1	0.5	0.5
1599081644.6200294	1599081644.6200294	8.305439330543933	0.0	0	0	0.5
1599081645.2859573	1599081645.2859573	8.343096234309623	1.0	1	0.5	0.5
1599081646.0585017	1599081646.0585017	8.380753138075313	0.0	0	0	0.5
1599081646.4437456	1599081646.4437456	8.418410041841003	1.0	1	0.5	0.5
1599081646.7793481	1599081646.7793481	8.456066945606695	1.0	1	0.5	0.5
1599081648.1407204	1599081648.1407204	8.493723849372385	1.0	1	0.5	0.5
1599081648.777655	1599081648.777655	8.531380753138077	6.0	6	1.224744871391589	1.224744871391589
1599081649.142613	1599081649.142613	8.569037656903767	1.0	1	0.5	0.5
1599081649.143885	1599081649.143885	8.606694560669457	0.0	0	0	0.5
1599081649.7224605	1599081649.7224605	8.644351464435147	1.0	1	0.5	0.5
1599081650.2751474	1599081650.2751474	8.682008368200837	1.0	1	0.5	0.5
1599081650.8120766	1599081650.8120766	8.719665271966527	2.0	2	0.7071067811865476	0.7071067811865476
1599081651.2567623	1599081651.2567623	8.757322175732217	0.0	0	0	0.5
1599081651.9189694	1599081651.9189694	8.794979079497908	0.0	0	0	0.5
1599081652.4319046	1599081652.4319046	8.832635983263598	2.0	2	0.7071067811865476	0.7071067811865476
1599081653.0051856	1599081653.0051856	8.87029288702929	0.0	0	0	0.5
1599081653.2906466	1599081653.2906466	8.90794979079498	2.0	2	0.7071067811865476	0.7071067811865476
1599081653.8080497	1599081653.8080497	8.94560669456067	2.0	2	0.7071067811865476	0.7071067811865476
1599081654.2652686	1599081654.2652686	8.98326359832636	2.0	2	0.7071067811865476	0.7071067811865476
1599081654.901382	1599081654.901382	9.02092050209205	1.0	1	0.5	0.5
1599081655.3465164	1599081655.3465164	9.05857740585774	0.0	0	0	0.5
1599081655.8901205	1599081655.8901205	9.096234309623432	1.0	1	0.5	0.5
1599081656.3946404	1599081656.3946404	9.133891213389122	0.0	0	0	0.5
1599081656.9429388	1599081656.9429388	9.171548117154812	3.0	3	0.8660254037844386	0.8660254037844386
1599081657.4451938	1599081657.4451938	9.209205020920502	1.0	1	0.5	0.5
1599081657.9361117	1599081657.9361117	9.246861924686193	2.0	2	0.7071067811865476	0.7071067811865476
1599081658.4240065	1599081658.4240065	9.284518828451883	3.0	3	0.8660254037844386	0.8660254037844386
1599081658.9258356	1599081658.9258356	9.322175732217573	2.0	2	0.7071067811865476	0.7071067811865476
1599081659.4024243	1599081659.4024243	9.359832635983263	1.0	1	0.5	0.5
1599081660.164404	1599081660.164404	9.397489539748955	1.0	1	0.5	0.5