# <?xml version="1.0" ?>
# <DataFileHeader>
#   <Variables>
#     <Element name="PulseProgram" type="dict">
#       <Element name="PulseProgram" type="str">C:/Users/ions/Documents/IonControl/project_dir/QuditLab/config/PulseProgramsPlus/Ablation_NeutralFluorescence.ppp</Element>
#       <Element name="NULL" type="Quantity">0</Element>
#       <Element name="FFFFFFFF" type="Quantity">18446744073709551615</Element>
#       <Element name="INTERRUPT_EXITCODE" type="Quantity">18446198715942174720</Element>
#       <Element name="InitializationShutter" type="int">5154</Element>
#       <Element name="NaturalAblation_mask" type="int">256</Element>
#       <Element name="NaturalAblation" type="int">256</Element>
#       <Element name="EndShutter" type="int">5154</Element>
#       <Element name="ShutterDelayTime" type="Quantity">0.5 s</Element>
#       <Element name="WindowStartTime" type="Quantity">145 us</Element>
#       <Element name="DetectTime" type="Quantity">20 us</Element>
#       <Element name="DummyVar" type="int">0</Element>
#       <Element name="experiments" type="int">1</Element>
#       <Element name="DetectCounters" type="int">1</Element>
#       <Element name="endLabel" type="Quantity">18446744073709551615</Element>
#       <Element name="experimentsleft" type="Quantity">100</Element>
#       <Element name="currentexperiment" type="Quantity">0</Element>
#       <Element name="inlinevar_1" type="Quantity">1</Element>
#     </Element>
#     <Element name="Scan" type="dict">
#       <Element name="scanParameter" type="str">DummyVar</Element>
#       <Element name="scanTarget" type="str">Internal</Element>
#       <Element name="scantype" type="int">0</Element>
#       <Element name="scanMode" type="int">0</Element>
#       <Element name="xUnit" type="str"></Element>
#       <Element name="xExpression" type="str"></Element>
#       <Element name="loadPP" type="bool">True</Element>
#       <Element name="loadPPName" type="str">Ablation_NeutralFluorescence_Rad.ppp</Element>
#       <Element name="parallelInternalScanParameter" type="str">None</Element>
#     </Element>
#     <ColumnSpec>timeTickFirst, timeTickLast, x, PMT Count, PMT Count_raw, PMT Count_bottom, PMT Count_top</ColumnSpec>
#     <Element name="comment" type="str"></Element>
#     <Element name="lastDataAquired" type="datetime">2020-09-02 21:25:38.872516+00:00</Element>
#     <Element name="name" type="str"></Element>
#     <Element name="traceCreation" type="datetime">2020-09-02 21:23:48.984487+00:00</Element>
#     <Element name="traceFinalized" type="datetime">2020-09-02 21:25:38.876253+00:00</Element>
#     <TracePlottingList>
#       <TracePlotting _bottomColumn="PMT Count_bottom" _filtColumn="None" _fitFunction="None" _heightColumn="height" _rawColumn="PMT Count_raw" _topColumn="PMT Count_top" _xColumn="x" _yColumn="PMT Count" fill="True" name="PMT Count" properties="&lt;trace.PlottedTrace.PlottedTraceProperties object at 0x000001B50BC27160&gt;" style="0" type="0" windowName="Scan Data" xAxisLabel="DummyVar" xAxisUnit="" yAxisLabel="None">
#         <PlottedTraceProperties averageSameX="False" averageType="0" combinePoints="0"/>
#       </TracePlotting>
#     </TracePlottingList>
#   </Variables>
# </DataFileHeader>
1599081827.8850052	1599081827.8850052	1.0	5.0	5	1.118033988749895	1.118033988749895
1599081828.982127	1599081828.982127	1.0376569037656904	1.0	1	0.5	0.5
1599081829.6248903	1599081829.6248903	1.0753138075313808	2.0	2	0.7071067811865476	0.7071067811865476
1599081829.9364653	1599081829.9364653	1.112970711297071	7.0	7	1.3228756555322954	1.3228756555322954
1599081830.413937	1599081830.413937	1.1506276150627615	2.0	2	0.7071067811865476	0.7071067811865476
1599081830.9263968	1599081830.9263968	1.1882845188284519	0.0	0	0	0.5
1599081831.3950953	1599081831.3950953	1.2259414225941423	5.0	5	1.118033988749895	1.118033988749895
1599081831.9354036	1599081831.9354036	1.2635983263598327	2.0	2	0.7071067811865476	0.7071067811865476
1599081832.4262695	1599081832.4262695	1.301255230125523	3.0	3	0.8660254037844386	0.8660254037844386
1599081832.8908198	1599081832.8908198	1.3389121338912133	4.0	4	1.0	1.0
1599081833.3571794	1599081833.3571794	1.3765690376569037	3.0	3	0.8660254037844386	0.8660254037844386
1599081833.8612924	1599081833.8612924	1.4142259414225942	2.0	2	0.7071067811865476	0.7071067811865476
1599081834.3501587	1599081834.3501587	1.4518828451882846	1.0	1	0.5	0.5
1599081834.8954782	1599081834.8954782	1.489539748953975	5.0	5	1.118033988749895	1.118033988749895
1599081835.3382547	1599081835.3382547	1.5271966527196654	4.0	4	1.0	1.0
1599081835.8677611	1599081835.8677611	1.5648535564853556	4.0	4	1.0	1.0
1599081836.3304718	1599081836.3304718	1.602510460251046	1.0	1	0.5	0.5
1599081836.8830605	1599081836.8830605	1.6401673640167365	2.0	2	0.7071067811865476	0.7071067811865476
1599081837.3015501	1599081837.3015501	1.6778242677824267	1.0	1	0.5	0.5
1599081837.8133283	1599081837.8133283	1.715481171548117	4.0	4	1.0	1.0
1599081838.2659724	1599081838.2659724	1.7531380753138075	2.0	2	0.7071067811865476	0.7071067811865476
1599081838.7526584	1599081838.7526584	1.790794979079498	0.0	0	0	0.5
1599081839.1547174	1599081839.1547174	1.8284518828451883	2.0	2	0.7071067811865476	0.7071067811865476
1599081839.641985	1599081839.641985	1.8661087866108788	0.0	0	0	0.5
1599081840.0417936	1599081840.0417936	1.9037656903765692	3.0	3	0.8660254037844386	0.8660254037844386
1599081840.5112073	1599081840.5112073	1.9414225941422596	3.0	3	0.8660254037844386	0.8660254037844386
1599081840.927562	1599081840.927562	1.9790794979079498	4.0	4	1.0	1.0
1599081841.3927407	1599081841.3927407	2.01673640167364	4.0	4	1.0	1.0
1599081841.810716	1599081841.810716	2.054393305439331	2.0	2	0.7071067811865476	0.7071067811865476
1599081842.277219	1599081842.277219	2.092050209205021	4.0	4	1.0	1.0
1599081842.753373	1599081842.753373	2.1297071129707112	13.0	13	1.8027756377319946	1.8027756377319946
1599081843.1607075	1599081843.1607075	2.1673640167364017	5.0	5	1.118033988749895	1.118033988749895
1599081843.5883102	1599081843.5883102	2.205020920502092	7.0	7	1.3228756555322954	1.3228756555322954
1599081844.0711927	1599081844.0711927	2.2426778242677825	6.0	6	1.224744871391589	1.224744871391589
1599081844.491865	1599081844.491865	2.280334728033473	4.0	4	1.0	1.0
1599081844.9341726	1599081844.9341726	2.3179916317991633	3.0	3	0.8660254037844386	0.8660254037844386
1599081845.359277	1599081845.359277	2.3556485355648533	4.0	4	1.0	1.0
1599081845.829472	1599081845.829472	2.393305439330544	3.0	3	0.8660254037844386	0.8660254037844386
1599081846.2461798	1599081846.2461798	2.430962343096234	3.0	3	0.8660254037844386	0.8660254037844386
1599081846.7124157	1599081846.7124157	2.468619246861925	3.0	3	0.8660254037844386	0.8660254037844386
1599081847.124345	1599081847.124345	2.506276150627615	6.0	6	1.224744871391589	1.224744871391589
1599081847.5312014	1599081847.5312014	2.5439330543933054	1.0	1	0.5	0.5
1599081847.9136612	1599081847.9136612	2.581589958158996	2.0	2	0.7071067811865476	0.7071067811865476
1599081848.3326454	1599081848.3326454	2.6192468619246863	9.0	9	1.5	1.5
1599081848.717318	1599081848.717318	2.6569037656903767	15.0	15	1.9364916731037085	1.9364916731037085
1599081849.125626	1599081849.125626	2.694560669456067	5.0	5	1.118033988749895	1.118033988749895
1599081849.5080893	1599081849.5080893	2.7322175732217575	4.0	4	1.0	1.0
1599081849.939602	1599081849.939602	2.7698744769874475	3.0	3	0.8660254037844386	0.8660254037844386
1599081850.3055196	1599081850.3055196	2.8075313807531384	1.0	1	0.5	0.5
1599081850.7436438	1599081850.7436438	2.8451882845188283	8.0	8	1.4142135623730951	1.4142135623730951
1599081851.1038673	1599081851.1038673	2.882845188284519	1.0	1	0.5	0.5
1599081851.535209	1599081851.535209	2.920502092050209	4.0	4	1.0	1.0
1599081851.9046474	1599081851.9046474	2.9581589958158996	1.0	1	0.5	0.5
1599081852.321067	1599081852.321067	2.99581589958159	2.0	2	0.7071067811865476	0.7071067811865476
1599081852.7045765	1599081852.7045765	3.0334728033472804	5.0	5	1.118033988749895	1.118033988749895
1599081853.113498	1599081853.113498	3.071129707112971	1.0	1	0.5	0.5
1599081853.5040731	1599081853.5040731	3.1087866108786613	1.0	1	0.5	0.5
1599081853.9124534	1599081853.9124534	3.1464435146443517	4.0	4	1.0	1.0
1599081854.298554	1599081854.298554	3.184100418410042	2.0	2	0.7071067811865476	0.7071067811865476
1599081854.7106209	1599081854.7106209	3.221757322175732	4.0	4	1.0	1.0
1599081855.2856257	1599081855.2856257	3.2594142259414225	4.0	4	1.0	1.0
1599081855.44047	1599081855.44047	3.297071129707113	3.0	3	0.8660254037844386	0.8660254037844386
1599081855.8467567	1599081855.8467567	3.3347280334728033	1.0	1	0.5	0.5
1599081856.1885738	1599081856.1885738	3.3723849372384938	7.0	7	1.3228756555322954	1.3228756555322954
1599081856.5182896	1599081856.5182896	3.410041841004184	6.0	6	1.224744871391589	1.224744871391589
1599081856.8987005	1599081856.8987005	3.4476987447698746	4.0	4	1.0	1.0
1599081857.2411008	1599081857.2411008	3.485355648535565	2.0	2	0.7071067811865476	0.7071067811865476
1599081857.6275957	1599081857.6275957	3.5230125523012554	2.0	2	0.7071067811865476	0.7071067811865476
1599081857.9602447	1599081857.9602447	3.560669456066946	4.0	4	1.0	1.0
1599081858.3465285	1599081858.3465285	3.5983263598326363	0.0	0	0	0.5
1599081858.677055	1599081858.677055	3.6359832635983262	0.0	0	0	0.5
1599081859.060469	1599081859.060469	3.6736401673640167	2.0	2	0.7071067811865476	0.7071067811865476
1599081859.3929884	1599081859.3929884	3.711297071129707	5.0	5	1.118033988749895	1.118033988749895
1599081859.7537973	1599081859.7537973	3.7489539748953975	4.0	4	1.0	1.0
1599081860.1117063	1599081860.1117063	3.786610878661088	2.0	2	0.7071067811865476	0.7071067811865476
1599081860.492627	1599081860.492627	3.8242677824267783	2.0	2	0.7071067811865476	0.7071067811865476
1599081860.8314273	1599081860.8314273	3.8619246861924688	1.0	1	0.5	0.5
1599081861.1986418	1599081861.1986418	3.899581589958159	3.0	3	0.8660254037844386	0.8660254037844386
1599081861.5469534	1599081861.5469534	3.9372384937238496	6.0	6	1.224744871391589	1.224744871391589
1599081861.9540372	1599081861.9540372	3.97489539748954	2.0	2	0.7071067811865476	0.7071067811865476
1599081862.2504203	1599081862.2504203	4.01255230125523	4.0	4	1.0	1.0
1599081862.5961812	1599081862.5961812	4.05020920502092	2.0	2	0.7071067811865476	0.7071067811865476
1599081862.8984737	1599081862.8984737	4.087866108786611	1.0	1	0.5	0.5
1599081863.223695	1599081863.223695	4.125523012552302	4.0	4	1.0	1.0
1599081863.5822546	1599081863.5822546	4.163179916317992	3.0	3	0.8660254037844386	0.8660254037844386
1599081863.8752418	1599081863.8752418	4.200836820083682	3.0	3	0.8660254037844386	0.8660254037844386
1599081864.1895204	1599081864.1895204	4.2384937238493725	5.0	5	1.118033988749895	1.118033988749895
1599081864.522979	1599081864.522979	4.276150627615063	4.0	4	1.0	1.0
1599081864.8400993	1599081864.8400993	4.313807531380753	2.0	2	0.7071067811865476	0.7071067811865476
1599081865.157818	1599081865.157818	4.351464435146443	2.0	2	0.7071067811865476	0.7071067811865476
1599081865.4811985	1599081865.4811985	4.389121338912134	2.0	2	0.7071067811865476	0.7071067811865476
1599081865.8155043	1599081865.8155043	4.426778242677824	1.0	1	0.5	0.5
1599081866.1338992	1599081866.1338992	4.464435146443515	4.0	4	1.0	1.0
1599081866.4666688	1599081866.4666688	4.502092050209205	3.0	3	0.8660254037844386	0.8660254037844386
1599081866.7761545	1599081866.7761545	4.539748953974895	0.0	0	0	0.5
1599081867.1153805	1599081867.1153805	4.577405857740586	1.0	1	0.5	0.5
1599081867.4177089	1599081867.4177089	4.615062761506277	4.0	4	1.0	1.0
1599081867.748032	1599081867.748032	4.652719665271967	1.0	1	0.5	0.5
1599081868.0654237	1599081868.0654237	4.690376569037657	1.0	1	0.5	0.5
1599081868.400007	1599081868.400007	4.7280334728033475	1.0	1	0.5	0.5
1599081868.7507856	1599081868.7507856	4.765690376569038	2.0	2	0.7071067811865476	0.7071067811865476
1599081869.2634976	1599081869.2634976	4.803347280334728	4.0	4	1.0	1.0
1599081869.7527585	1599081869.7527585	4.841004184100418	3.0	3	0.8660254037844386	0.8660254037844386
1599081870.2761276	1599081870.2761276	4.878661087866108	3.0	3	0.8660254037844386	0.8660254037844386
1599081870.7601922	1599081870.7601922	4.916317991631799	2.0	2	0.7071067811865476	0.7071067811865476
1599081871.4149673	1599081871.4149673	4.95397489539749	2.0	2	0.7071067811865476	0.7071067811865476
1599081871.7892103	1599081871.7892103	4.99163179916318	0.0	0	0	0.5
1599081872.2520983	1599081872.2520983	5.02928870292887	2.0	2	0.7071067811865476	0.7071067811865476
1599081872.7590556	1599081872.7590556	5.066945606694561	1.0	1	0.5	0.5
1599081873.2707841	1599081873.2707841	5.104602510460251	1.0	1	0.5	0.5
1599081873.829467	1599081873.829467	5.142259414225942	3.0	3	0.8660254037844386	0.8660254037844386
1599081874.271433	1599081874.271433	5.179916317991632	3.0	3	0.8660254037844386	0.8660254037844386
1599081874.766178	1599081874.766178	5.2175732217573225	4.0	4	1.0	1.0
1599081875.559408	1599081875.559408	5.2552301255230125	3.0	3	0.8660254037844386	0.8660254037844386
1599081875.7615128	1599081875.7615128	5.292887029288703	2.0	2	0.7071067811865476	0.7071067811865476
1599081876.2817373	1599081876.2817373	5.330543933054393	2.0	2	0.7071067811865476	0.7071067811865476
1599081876.7549229	1599081876.7549229	5.368200836820084	3.0	3	0.8660254037844386	0.8660254037844386
1599081877.2895882	1599081877.2895882	5.405857740585774	2.0	2	0.7071067811865476	0.7071067811865476
1599081877.7599735	1599081877.7599735	5.443514644351464	5.0	5	1.118033988749895	1.118033988749895
1599081878.28361	1599081878.28361	5.481171548117155	5.0	5	1.118033988749895	1.118033988749895
1599081878.7563472	1599081878.7563472	5.518828451882845	4.0	4	1.0	1.0
1599081879.1990907	1599081879.1990907	5.556485355648536	2.0	2	0.7071067811865476	0.7071067811865476
1599081879.6441147	1599081879.6441147	5.594142259414226	2.0	2	0.7071067811865476	0.7071067811865476
1599081880.1045067	1599081880.1045067	5.631799163179917	2.0	2	0.7071067811865476	0.7071067811865476
1599081880.5543919	1599081880.5543919	5.669456066945607	3.0	3	0.8660254037844386	0.8660254037844386
1599081880.9958565	1599081880.9958565	5.7071129707112975	3.0	3	0.8660254037844386	0.8660254037844386
1599081881.4428208	1599081881.4428208	5.7447698744769875	2.0	2	0.7071067811865476	0.7071067811865476
1599081881.9019158	1599081881.9019158	5.782426778242678	2.0	2	0.7071067811865476	0.7071067811865476
1599081882.34688	1599081882.34688	5.820083682008368	6.0	6	1.224744871391589	1.224744871391589
1599081882.802761	1599081882.802761	5.857740585774058	3.0	3	0.8660254037844386	0.8660254037844386
1599081883.251947	1599081883.251947	5.895397489539749	3.0	3	0.8660254037844386	0.8660254037844386
1599081883.696376	1599081883.696376	5.933054393305439	2.0	2	0.7071067811865476	0.7071067811865476
1599081884.145416	1599081884.145416	5.97071129707113	3.0	3	0.8660254037844386	0.8660254037844386
1599081884.5941586	1599081884.5941586	6.00836820083682	6.0	6	1.224744871391589	1.224744871391589
1599081885.048943	1599081885.048943	6.046025104602511	1.0	1	0.5	0.5
1599081885.4998283	1599081885.4998283	6.083682008368201	4.0	4	1.0	1.0
1599081885.946447	1599081885.946447	6.121338912133892	1.0	1	0.5	0.5
1599081886.411404	1599081886.411404	6.158995815899582	2.0	2	0.7071067811865476	0.7071067811865476
1599081886.8476028	1599081886.8476028	6.1966527196652725	5.0	5	1.118033988749895	1.118033988749895
1599081887.2951608	1599081887.2951608	6.2343096234309625	3.0	3	0.8660254037844386	0.8660254037844386
1599081887.7587402	1599081887.7587402	6.2719665271966525	4.0	4	1.0	1.0
1599081888.256086	1599081888.256086	6.309623430962343	2.0	2	0.7071067811865476	0.7071067811865476
1599081888.7490606	1599081888.7490606	6.347280334728033	3.0	3	0.8660254037844386	0.8660254037844386
1599081889.3036568	1599081889.3036568	6.384937238493724	4.0	4	1.0	1.0
1599081889.7355492	1599081889.7355492	6.422594142259414	2.0	2	0.7071067811865476	0.7071067811865476
1599081890.238961	1599081890.238961	6.460251046025105	2.0	2	0.7071067811865476	0.7071067811865476
1599081890.7668366	1599081890.7668366	6.497907949790795	6.0	6	1.224744871391589	1.224744871391589
1599081891.2432196	1599081891.2432196	6.535564853556486	5.0	5	1.118033988749895	1.118033988749895
1599081891.7216022	1599081891.7216022	6.573221757322176	5.0	5	1.118033988749895	1.118033988749895
1599081892.2803433	1599081892.2803433	6.610878661087867	5.0	5	1.118033988749895	1.118033988749895
1599081892.7070534	1599081892.7070534	6.648535564853557	2.0	2	0.7071067811865476	0.7071067811865476
1599081893.2371376	1599081893.2371376	6.686192468619247	2.0	2	0.7071067811865476	0.7071067811865476
1599081893.6989264	1599081893.6989264	6.7238493723849375	3.0	3	0.8660254037844386	0.8660254037844386
1599081894.2404904	1599081894.2404904	6.7615062761506275	2.0	2	0.7071067811865476	0.7071067811865476
1599081894.704161	1599081894.704161	6.799163179916318	3.0	3	0.8660254037844386	0.8660254037844386
1599081895.2610419	1599081895.2610419	6.836820083682008	1.0	1	0.5	0.5
1599081895.6771266	1599081895.6771266	6.874476987447699	2.0	2	0.7071067811865476	0.7071067811865476
1599081896.1791239	1599081896.1791239	6.912133891213389	0.0	0	0	0.5
1599081896.7266562	1599081896.7266562	6.94979079497908	3.0	3	0.8660254037844386	0.8660254037844386
1599081897.162611	1599081897.162611	6.98744769874477	9.0	9	1.5	1.5
1599081897.6781445	1599081897.6781445	7.02510460251046	1.0	1	0.5	0.5
1599081898.2188463	1599081898.2188463	7.062761506276151	5.0	5	1.118033988749895	1.118033988749895
1599081898.9592485	1599081898.9592485	7.100418410041841	1.0	1	0.5	0.5
1599081899.5635283	1599081899.5635283	7.138075313807532	1.0	1	0.5	0.5
1599081899.8944836	1599081899.8944836	7.175732217573222	2.0	2	0.7071067811865476	0.7071067811865476
1599081901.1991732	1599081901.1991732	7.2133891213389125	2.0	2	0.7071067811865476	0.7071067811865476
1599081901.1991732	1599081901.1991732	7.2510460251046025	3.0	3	0.8660254037844386	0.8660254037844386
1599081901.5350914	1599081901.5350914	7.288702928870293	0.0	0	0	0.5
1599081902.088296	1599081902.088296	7.326359832635983	6.0	6	1.224744871391589	1.224744871391589
1599081902.5788906	1599081902.5788906	7.364016736401674	1.0	1	0.5	0.5
1599081903.1757138	1599081903.1757138	7.401673640167364	7.0	7	1.3228756555322954	1.3228756555322954
1599081903.6731312	1599081903.6731312	7.439330543933054	5.0	5	1.118033988749895	1.118033988749895
1599081904.2570968	1599081904.2570968	7.476987447698745	4.0	4	1.0	1.0
1599081904.752962	1599081904.752962	7.514644351464435	5.0	5	1.118033988749895	1.118033988749895
1599081905.3605378	1599081905.3605378	7.552301255230126	3.0	3	0.8660254037844386	0.8660254037844386
1599081905.8715298	1599081905.8715298	7.589958158995816	1.0	1	0.5	0.5
1599081906.388143	1599081906.388143	7.627615062761507	2.0	2	0.7071067811865476	0.7071067811865476
1599081906.9282324	1599081906.9282324	7.665271966527197	3.0	3	0.8660254037844386	0.8660254037844386
1599081907.5259058	1599081907.5259058	7.7029288702928875	1.0	1	0.5	0.5
1599081908.0827262	1599081908.0827262	7.7405857740585775	0.0	0	0	0.5
1599081908.6031585	1599081908.6031585	7.778242677824268	2.0	2	0.7071067811865476	0.7071067811865476
1599081909.0468671	1599081909.0468671	7.815899581589958	1.0	1	0.5	0.5
1599081909.606094	1599081909.606094	7.853556485355648	2.0	2	0.7071067811865476	0.7071067811865476
1599081910.0321274	1599081910.0321274	7.891213389121339	3.0	3	0.8660254037844386	0.8660254037844386
1599081910.5091236	1599081910.5091236	7.928870292887029	1.0	1	0.5	0.5
1599081911.0487244	1599081911.0487244	7.96652719665272	3.0	3	0.8660254037844386	0.8660254037844386
1599081911.5415075	1599081911.5415075	8.00418410041841	2.0	2	0.7071067811865476	0.7071067811865476
1599081912.046218	1599081912.046218	8.0418410041841	3.0	3	0.8660254037844386	0.8660254037844386
1599081912.4733365	1599081912.4733365	8.07949790794979	3.0	3	0.8660254037844386	0.8660254037844386
1599081912.9625196	1599081912.9625196	8.117154811715482	7.0	7	1.3228756555322954	1.3228756555322954
1599081913.502635	1599081913.502635	8.154811715481172	4.0	4	1.0	1.0
1599081914.0189714	1599081914.0189714	8.192468619246863	5.0	5	1.118033988749895	1.118033988749895
1599081914.4323263	1599081914.4323263	8.230125523012553	5.0	5	1.118033988749895	1.118033988749895
1599081914.9243188	1599081914.9243188	8.267782426778243	5.0	5	1.118033988749895	1.118033988749895
1599081915.4714293	1599081915.4714293	8.305439330543933	5.0	5	1.118033988749895	1.118033988749895
1599081915.9639971	1599081915.9639971	8.343096234309623	9.0	9	1.5	1.5
1599081916.5596602	1599081916.5596602	8.380753138075313	3.0	3	0.8660254037844386	0.8660254037844386
1599081916.9509237	1599081916.9509237	8.418410041841003	3.0	3	0.8660254037844386	0.8660254037844386
1599081917.4287379	1599081917.4287379	8.456066945606695	5.0	5	1.118033988749895	1.118033988749895
1599081917.8632662	1599081917.8632662	8.493723849372385	4.0	4	1.0	1.0
1599081918.4520686	1599081918.4520686	8.531380753138077	5.0	5	1.118033988749895	1.118033988749895
1599081918.98117	1599081918.98117	8.569037656903767	3.0	3	0.8660254037844386	0.8660254037844386
1599081919.5086415	1599081919.5086415	8.606694560669457	7.0	7	1.3228756555322954	1.3228756555322954
1599081920.062559	1599081920.062559	8.644351464435147	6.0	6	1.224744871391589	1.224744871391589
1599081920.578243	1599081920.578243	8.682008368200837	4.0	4	1.0	1.0
1599081921.134188	1599081921.134188	8.719665271966527	5.0	5	1.118033988749895	1.118033988749895
1599081921.6608796	1599081921.6608796	8.757322175732217	1.0	1	0.5	0.5
1599081922.214923	1599081922.214923	8.794979079497908	4.0	4	1.0	1.0
1599081922.735254	1599081922.735254	8.832635983263598	0.0	0	0	0.5
1599081923.2884722	1599081923.2884722	8.87029288702929	2.0	2	0.7071067811865476	0.7071067811865476
1599081923.8369675	1599081923.8369675	8.90794979079498	2.0	2	0.7071067811865476	0.7071067811865476
1599081924.3796256	1599081924.3796256	8.94560669456067	3.0	3	0.8660254037844386	0.8660254037844386
1599081924.9043431	1599081924.9043431	8.98326359832636	5.0	5	1.118033988749895	1.118033988749895
1599081925.3743687	1599081925.3743687	9.02092050209205	5.0	5	1.118033988749895	1.118033988749895
1599081925.9842923	1599081925.9842923	9.05857740585774	4.0	4	1.0	1.0
1599081926.537722	1599081926.537722	9.096234309623432	5.0	5	1.118033988749895	1.118033988749895
1599081927.0627418	1599081927.0627418	9.133891213389122	1.0	1	0.5	0.5
1599081927.6248786	1599081927.6248786	9.171548117154812	1.0	1	0.5	0.5
1599081928.139064	1599081928.139064	9.209205020920502	2.0	2	0.7071067811865476	0.7071067811865476
1599081928.699971	1599081928.699971	9.246861924686193	2.0	2	0.7071067811865476	0.7071067811865476
1599081929.1926782	1599081929.1926782	9.284518828451883	4.0	4	1.0	1.0
1599081929.70815	1599081929.70815	9.322175732217573	3.0	3	0.8660254037844386	0.8660254037844386
1599081930.1764562	1599081930.1764562	9.359832635983263	2.0	2	0.7071067811865476	0.7071067811865476
1599081930.6166384	1599081930.6166384	9.397489539748955	3.0	3	0.8660254037844386	0.8660254037844386
1599081931.0996807	1599081931.0996807	9.435146443514645	3.0	3	0.8660254037844386	0.8660254037844386
1599081931.5719023	1599081931.5719023	9.472803347280335	2.0	2	0.7071067811865476	0.7071067811865476
1599081932.1070976	1599081932.1070976	9.510460251046025	1.0	1	0.5	0.5
1599081932.6211698	1599081932.6211698	9.548117154811715	3.0	3	0.8660254037844386	0.8660254037844386
1599081933.086075	1599081933.086075	9.585774058577407	0.0	0	0	0.5
1599081933.5891366	1599081933.5891366	9.623430962343097	4.0	4	1.0	1.0
1599081934.0557196	1599081934.0557196	9.661087866108787	4.0	4	1.0	1.0
1599081934.5472505	1599081934.5472505	9.698744769874477	1.0	1	0.5	0.5
1599081935.0245967	1599081935.0245967	9.736401673640168	4.0	4	1.0	1.0
1599081935.7583275	1599081935.7583275	9.774058577405858	2.0	2	0.7071067811865476	0.7071067811865476
1599081936.0130467	1599081936.0130467	9.811715481171548	2.0	2	0.7071067811865476	0.7071067811865476
1599081936.472699	1599081936.472699	9.849372384937238	2.0	2	0.7071067811865476	0.7071067811865476
1599081936.9593408	1599081936.9593408	9.887029288702928	1.0	1	0.5	0.5
1599081937.4370615	1599081937.4370615	9.92468619246862	3.0	3	0.8660254037844386	0.8660254037844386
1599081937.915785	1599081937.915785	9.96234309623431	1.0	1	0.5	0.5
1599081938.4193652	1599081938.4193652	10.0	7.0	7	1.3228756555322954	1.3228756555322954