# <?xml version="1.0" ?>
# <DataFileHeader>
#   <Variables>
#     <Element name="PulseProgram" type="dict">
#       <Element name="PulseProgram" type="str">C:/Users/ions/Documents/IonControl/project_dir/QuditLab/config/PulseProgramsPlus/Ablation_NeutralFluorescence.ppp</Element>
#       <Element name="NULL" type="Quantity">0</Element>
#       <Element name="FFFFFFFF" type="Quantity">18446744073709551615</Element>
#       <Element name="INTERRUPT_EXITCODE" type="Quantity">18446198715942174720</Element>
#       <Element name="InitializationShutter" type="int">4632</Element>
#       <Element name="NaturalAblation_mask" type="int">256</Element>
#       <Element name="NaturalAblation" type="int">256</Element>
#       <Element name="EndShutter" type="int">4632</Element>
#       <Element name="ShutterDelayTime" type="Quantity">0.5 s</Element>
#       <Element name="WindowStartTime" type="Quantity">141 us</Element>
#       <Element name="DetectTime" type="Quantity">20 us</Element>
#       <Element name="DummyVar" type="int">0</Element>
#       <Element name="experiments" type="int">1</Element>
#       <Element name="DetectCounters" type="int">1</Element>
#       <Element name="endLabel" type="Quantity">18446744073709551615</Element>
#       <Element name="experimentsleft" type="Quantity">100</Element>
#       <Element name="currentexperiment" type="Quantity">0</Element>
#       <Element name="inlinevar_1" type="Quantity">1</Element>
#     </Element>
#     <Element name="Scan" type="dict">
#       <Element name="scanParameter" type="str">DummyVar</Element>
#       <Element name="scanTarget" type="str">Internal</Element>
#       <Element name="scantype" type="int">0</Element>
#       <Element name="scanMode" type="int">0</Element>
#       <Element name="xUnit" type="str"></Element>
#       <Element name="xExpression" type="str"></Element>
#       <Element name="loadPP" type="bool">True</Element>
#       <Element name="loadPPName" type="str">Ablation_IonFluorescence_Nat.ppp</Element>
#       <Element name="parallelInternalScanParameter" type="str">None</Element>
#     </Element>
#     <ColumnSpec>timeTickFirst, timeTickLast, x, PMT Count, PMT Count_raw, PMT Count_bottom, PMT Count_top</ColumnSpec>
#     <Element name="comment" type="str"></Element>
#     <Element name="lastDataAquired" type="datetime">2020-09-18 19:49:13.724951+00:00</Element>
#     <Element name="name" type="str"></Element>
#     <Element name="traceCreation" type="datetime">2020-09-18 19:47:19.578563+00:00</Element>
#     <Element name="traceFinalized" type="datetime">2020-09-18 19:49:13.728187+00:00</Element>
#     <TracePlottingList>
#       <TracePlotting _bottomColumn="PMT Count_bottom" _filtColumn="None" _fitFunction="None" _heightColumn="height" _rawColumn="PMT Count_raw" _topColumn="PMT Count_top" _xColumn="x" _yColumn="PMT Count" fill="True" name="PMT Count" properties="&lt;trace.PlottedTrace.PlottedTraceProperties object at 0x000001566003B390&gt;" style="0" type="0" windowName="Scan Data" xAxisLabel="DummyVar" xAxisUnit="" yAxisLabel="None">
#         <PlottedTraceProperties averageSameX="False" averageType="0" combinePoints="0"/>
#       </TracePlotting>
#     </TracePlottingList>
#   </Variables>
# </DataFileHeader>
1600458438.351676	1600458438.351676	1.0	0.0	0	0	0.5
1600458439.5760765	1600458439.5760765	2.0	1.0	1	0.5	0.5
1600458440.2695112	1600458440.2695112	3.0	1.0	1	0.5	0.5
1600458440.86851	1600458440.86851	4.0	0.0	0	0	0.5
1600458441.3576214	1600458441.3576214	5.0	1.0	1	0.5	0.5
1600458441.9492629	1600458441.9492629	6.0	2.0	2	0.7071067811865476	0.7071067811865476
1600458442.5392346	1600458442.5392346	7.0	0.0	0	0	0.5
1600458443.1397226	1600458443.1397226	8.0	0.0	0	0	0.5
1600458443.7269955	1600458443.7269955	9.0	0.0	0	0	0.5
1600458444.3151174	1600458444.3151174	10.0	0.0	0	0	0.5
1600458444.9058633	1600458444.9058633	11.0	1.0	1	0.5	0.5
1600458445.5068278	1600458445.5068278	12.0	2.0	2	0.7071067811865476	0.7071067811865476
1600458446.0845609	1600458446.0845609	13.0	6.0	6	1.224744871391589	1.224744871391589
1600458446.6919494	1600458446.6919494	14.0	6.0	6	1.224744871391589	1.224744871391589
1600458447.2571323	1600458447.2571323	15.0	14.0	14	1.8708286933869707	1.8708286933869707
1600458447.8024232	1600458447.8024232	16.0	18.0	18	2.1213203435596424	2.1213203435596424
1600458448.3203492	1600458448.3203492	17.0	23.0	23	2.3979157616563596	2.3979157616563596
1600458448.8594718	1600458448.8594718	18.0	25.0	25	2.5	2.5
1600458449.3802595	1600458449.3802595	19.0	16.0	16	2.0	2.0
1600458449.9303808	1600458449.9303808	20.0	13.0	13	1.8027756377319946	1.8027756377319946
1600458450.4650104	1600458450.4650104	21.0	24.0	24	2.449489742783178	2.449489742783178
1600458451.004727	1600458451.004727	22.0	17.0	17	2.0615528128088303	2.0615528128088303
1600458451.5586674	1600458451.5586674	23.0	23.0	23	2.3979157616563596	2.3979157616563596
1600458452.107521	1600458452.107521	24.0	27.0	27	2.598076211353316	2.598076211353316
1600458452.5952067	1600458452.5952067	25.0	19.0	19	2.179449471770337	2.179449471770337
1600458453.132194	1600458453.132194	26.0	21.0	21	2.29128784747792	2.29128784747792
1600458453.6564512	1600458453.6564512	27.0	5.0	5	1.118033988749895	1.118033988749895
1600458454.2037756	1600458454.2037756	28.0	4.0	4	1.0	1.0
1600458454.7442462	1600458454.7442462	29.0	6.0	6	1.224744871391589	1.224744871391589
1600458455.3185728	1600458455.3185728	30.0	2.0	2	0.7071067811865476	0.7071067811865476
1600458455.8176365	1600458455.8176365	31.0	1.0	1	0.5	0.5
1600458456.5202286	1600458456.5202286	32.0	0.0	0	0	0.5
1600458456.9313226	1600458456.9313226	33.0	12.0	12	1.7320508075688772	1.7320508075688772
1600458457.4503136	1600458457.4503136	34.0	9.0	9	1.5	1.5
1600458457.9338834	1600458457.9338834	35.0	18.0	18	2.1213203435596424	2.1213203435596424
1600458458.533106	1600458458.533106	36.0	18.0	18	2.1213203435596424	2.1213203435596424
1600458458.9182136	1600458458.9182136	37.0	10.0	10	1.5811388300841898	1.5811388300841898
1600458459.4054453	1600458459.4054453	38.0	13.0	13	1.8027756377319946	1.8027756377319946
1600458459.8594906	1600458459.8594906	39.0	13.0	13	1.8027756377319946	1.8027756377319946
1600458460.3634858	1600458460.3634858	40.0	14.0	14	1.8708286933869707	1.8708286933869707
1600458460.8056834	1600458460.8056834	41.0	12.0	12	1.7320508075688772	1.7320508075688772
1600458461.337109	1600458461.337109	42.0	16.0	16	2.0	2.0
1600458461.7926695	1600458461.7926695	43.0	13.0	13	1.8027756377319946	1.8027756377319946
1600458462.289041	1600458462.289041	44.0	22.0	22	2.345207879911715	2.345207879911715
1600458462.7452004	1600458462.7452004	45.0	11.0	11	1.6583123951777	1.6583123951777
1600458463.23606	1600458463.23606	46.0	25.0	25	2.5	2.5
1600458463.6924975	1600458463.6924975	47.0	28.0	28	2.6457513110645907	2.6457513110645907
1600458464.1947205	1600458464.1947205	48.0	25.0	25	2.5	2.5
1600458464.6317313	1600458464.6317313	49.0	37.0	37	3.0413812651491097	3.0413812651491097
1600458465.1624203	1600458465.1624203	50.0	46.0	46	3.391164991562634	3.391164991562634
1600458465.6128623	1600458465.6128623	51.0	30.0	30	2.7386127875258306	2.7386127875258306
1600458466.1244245	1600458466.1244245	52.0	7.0	7	1.3228756555322954	1.3228756555322954
1600458466.6749356	1600458466.6749356	53.0	9.0	9	1.5	1.5
1600458467.1239133	1600458467.1239133	54.0	11.0	11	1.6583123951777	1.6583123951777
1600458467.5478587	1600458467.5478587	55.0	15.0	15	1.9364916731037085	1.9364916731037085
1600458467.9796565	1600458467.9796565	56.0	11.0	11	1.6583123951777	1.6583123951777
1600458468.5594394	1600458468.5594394	57.0	14.0	14	1.8708286933869707	1.8708286933869707
1600458468.8081477	1600458468.8081477	58.0	52.0	52	3.605551275463989	3.605551275463989
1600458469.2503016	1600458469.2503016	59.0	50.0	50	3.5355339059327378	3.5355339059327378
1600458469.6883113	1600458469.6883113	60.0	35.0	35	2.958039891549808	2.958039891549808
1600458470.131975	1600458470.131975	61.0	24.0	24	2.449489742783178	2.449489742783178
1600458470.5762362	1600458470.5762362	62.0	32.0	32	2.8284271247461903	2.8284271247461903
1600458470.9783103	1600458470.9783103	63.0	41.0	41	3.2015621187164243	3.2015621187164243
1600458471.42744	1600458471.42744	64.0	15.0	15	1.9364916731037085	1.9364916731037085
1600458471.838124	1600458471.838124	65.0	5.0	5	1.118033988749895	1.118033988749895
1600458472.313514	1600458472.313514	66.0	5.0	5	1.118033988749895	1.118033988749895
1600458472.708219	1600458472.708219	67.0	6.0	6	1.224744871391589	1.224744871391589
1600458473.178946	1600458473.178946	68.0	7.0	7	1.3228756555322954	1.3228756555322954
1600458473.5628607	1600458473.5628607	69.0	1.0	1	0.5	0.5
1600458474.037804	1600458474.037804	70.0	0.0	0	0	0.5
1600458474.4644516	1600458474.4644516	71.0	0.0	0	0	0.5
1600458474.9730377	1600458474.9730377	72.0	0.0	0	0	0.5
1600458475.3394666	1600458475.3394666	73.0	0.0	0	0	0.5
1600458475.8146145	1600458475.8146145	74.0	1.0	1	0.5	0.5
1600458476.1839821	1600458476.1839821	75.0	1.0	1	0.5	0.5
1600458476.565359	1600458476.565359	76.0	0.0	0	0	0.5
1600458476.9247243	1600458476.9247243	77.0	0.0	0	0	0.5
1600458477.342471	1600458477.342471	78.0	0.0	0	0	0.5
1600458477.7037091	1600458477.7037091	79.0	0.0	0	0	0.5
1600458478.1202831	1600458478.1202831	80.0	1.0	1	0.5	0.5
1600458478.4813898	1600458478.4813898	81.0	1.0	1	0.5	0.5
1600458478.8722074	1600458478.8722074	82.0	6.0	6	1.224744871391589	1.224744871391589
1600458479.262936	1600458479.262936	83.0	24.0	24	2.449489742783178	2.449489742783178
1600458479.6753027	1600458479.6753027	84.0	55.0	55	3.7080992435478315	3.7080992435478315
1600458480.0425265	1600458480.0425265	85.0	66.0	66	4.06201920231798	4.06201920231798
1600458480.5779016	1600458480.5779016	86.0	112.0	112	5.291502622129181	5.291502622129181
1600458480.864127	1600458480.864127	87.0	83.0	83	4.55521678957215	4.55521678957215
1600458481.2322927	1600458481.2322927	88.0	88.0	88	4.69041575982343	4.69041575982343
1600458481.601604	1600458481.601604	89.0	71.0	71	4.2130748865881795	4.2130748865881795
1600458482.1255548	1600458482.1255548	90.0	119.0	119	5.454356057317857	5.454356057317857
1600458482.4378135	1600458482.4378135	91.0	68.0	68	4.123105625617661	4.123105625617661
1600458482.7923934	1600458482.7923934	92.0	78.0	78	4.415880433163924	4.415880433163924
1600458483.1574185	1600458483.1574185	93.0	86.0	86	4.636809247747852	4.636809247747852
1600458483.5597913	1600458483.5597913	94.0	95.0	95	4.873397172404482	4.873397172404482
1600458483.9442677	1600458483.9442677	95.0	67.0	67	4.092676385936225	4.092676385936225
1600458484.39621	1600458484.39621	96.0	102.0	102	5.049752469181039	5.049752469181039
1600458484.8002238	1600458484.8002238	97.0	61.0	61	3.905124837953327	3.905124837953327
1600458485.2492723	1600458485.2492723	98.0	28.0	28	2.6457513110645907	2.6457513110645907
1600458485.6481185	1600458485.6481185	99.0	20.0	20	2.23606797749979	2.23606797749979
1600458486.1077704	1600458486.1077704	100.0	3.0	3	0.8660254037844386	0.8660254037844386
1600458486.5117295	1600458486.5117295	101.0	0.0	0	0	0.5
1600458486.966475	1600458486.966475	102.0	0.0	0	0	0.5
1600458487.433119	1600458487.433119	103.0	0.0	0	0	0.5
1600458487.8240786	1600458487.8240786	104.0	0.0	0	0	0.5
1600458488.2625172	1600458488.2625172	105.0	6.0	6	1.224744871391589	1.224744871391589
1600458488.6900692	1600458488.6900692	106.0	7.0	7	1.3228756555322954	1.3228756555322954
1600458489.116263	1600458489.116263	107.0	4.0	4	1.0	1.0
1600458489.538274	1600458489.538274	108.0	3.0	3	0.8660254037844386	0.8660254037844386
1600458489.934773	1600458489.934773	109.0	6.0	6	1.224744871391589	1.224744871391589
1600458490.4312348	1600458490.4312348	110.0	9.0	9	1.5	1.5
1600458490.8125474	1600458490.8125474	111.0	8.0	8	1.4142135623730951	1.4142135623730951
1600458491.2253387	1600458491.2253387	112.0	10.0	10	1.5811388300841898	1.5811388300841898
1600458491.6534898	1600458491.6534898	113.0	2.0	2	0.7071067811865476	0.7071067811865476
1600458492.1082678	1600458492.1082678	114.0	12.0	12	1.7320508075688772	1.7320508075688772
1600458492.5039911	1600458492.5039911	115.0	2.0	2	0.7071067811865476	0.7071067811865476
1600458493.0275884	1600458493.0275884	116.0	1.0	1	0.5	0.5
1600458493.4550843	1600458493.4550843	117.0	4.0	4	1.0	1.0
1600458493.9494123	1600458493.9494123	118.0	10.0	10	1.5811388300841898	1.5811388300841898
1600458494.4029672	1600458494.4029672	119.0	31.0	31	2.7838821814150108	2.7838821814150108
1600458494.8699887	1600458494.8699887	120.0	59.0	59	3.840572873934304	3.840572873934304
1600458495.3336225	1600458495.3336225	121.0	76.0	76	4.358898943540674	4.358898943540674
1600458495.8059762	1600458495.8059762	122.0	35.0	35	2.958039891549808	2.958039891549808
1600458496.3123283	1600458496.3123283	123.0	4.0	4	1.0	1.0
1600458496.80213	1600458496.80213	124.0	0.0	0	0	0.5
1600458497.241306	1600458497.241306	125.0	0.0	0	0	0.5
1600458497.8322456	1600458497.8322456	126.0	0.0	0	0	0.5
1600458498.2289097	1600458498.2289097	127.0	0.0	0	0	0.5
1600458498.6955051	1600458498.6955051	128.0	0.0	0	0	0.5
1600458499.1220863	1600458499.1220863	129.0	1.0	1	0.5	0.5
1600458499.5835154	1600458499.5835154	130.0	0.0	0	0	0.5
1600458500.0420055	1600458500.0420055	131.0	1.0	1	0.5	0.5
1600458500.5522485	1600458500.5522485	132.0	0.0	0	0	0.5
1600458500.9955413	1600458500.9955413	133.0	0.0	0	0	0.5
1600458501.4859533	1600458501.4859533	134.0	2.0	2	0.7071067811865476	0.7071067811865476
1600458501.933984	1600458501.933984	135.0	1.0	1	0.5	0.5
1600458502.4980772	1600458502.4980772	136.0	6.0	6	1.224744871391589	1.224744871391589
1600458502.9840596	1600458502.9840596	137.0	9.0	9	1.5	1.5
1600458503.533875	1600458503.533875	138.0	11.0	11	1.6583123951777	1.6583123951777
1600458504.009322	1600458504.009322	139.0	8.0	8	1.4142135623730951	1.4142135623730951
1600458504.5528655	1600458504.5528655	140.0	25.0	25	2.5	2.5
1600458505.045103	1600458505.045103	141.0	15.0	15	1.9364916731037085	1.9364916731037085
1600458505.5595896	1600458505.5595896	142.0	26.0	26	2.5495097567963922	2.5495097567963922
1600458506.1069899	1600458506.1069899	143.0	35.0	35	2.958039891549808	2.958039891549808
1600458506.745273	1600458506.745273	144.0	27.0	27	2.598076211353316	2.598076211353316
1600458507.1799362	1600458507.1799362	145.0	31.0	31	2.7838821814150108	2.7838821814150108
1600458507.6815147	1600458507.6815147	146.0	34.0	34	2.9154759474226504	2.9154759474226504
1600458508.151109	1600458508.151109	147.0	34.0	34	2.9154759474226504	2.9154759474226504
1600458508.7078512	1600458508.7078512	148.0	31.0	31	2.7838821814150108	2.7838821814150108
1600458509.1888301	1600458509.1888301	149.0	24.0	24	2.449489742783178	2.449489742783178
1600458509.737194	1600458509.737194	150.0	23.0	23	2.3979157616563596	2.3979157616563596
1600458510.2235825	1600458510.2235825	151.0	19.0	19	2.179449471770337	2.179449471770337
1600458510.7719414	1600458510.7719414	152.0	9.0	9	1.5	1.5
1600458511.366251	1600458511.366251	153.0	9.0	9	1.5	1.5
1600458511.771175	1600458511.771175	154.0	1.0	1	0.5	0.5
1600458512.3272345	1600458512.3272345	155.0	2.0	2	0.7071067811865476	0.7071067811865476
1600458512.8734431	1600458512.8734431	156.0	1.0	1	0.5	0.5
1600458513.5137768	1600458513.5137768	157.0	0.0	0	0	0.5
1600458514.0779917	1600458514.0779917	158.0	10.0	10	1.5811388300841898	1.5811388300841898
1600458514.5831583	1600458514.5831583	159.0	9.0	9	1.5	1.5
1600458515.1862323	1600458515.1862323	160.0	22.0	22	2.345207879911715	2.345207879911715
1600458515.7224436	1600458515.7224436	161.0	13.0	13	1.8027756377319946	1.8027756377319946
1600458516.376744	1600458516.376744	162.0	12.0	12	1.7320508075688772	1.7320508075688772
1600458516.8865767	1600458516.8865767	163.0	6.0	6	1.224744871391589	1.224744871391589
1600458517.4710484	1600458517.4710484	164.0	18.0	18	2.1213203435596424	2.1213203435596424
1600458518.0027823	1600458518.0027823	165.0	11.0	11	1.6583123951777	1.6583123951777
1600458518.5952387	1600458518.5952387	166.0	14.0	14	1.8708286933869707	1.8708286933869707
1600458519.1517086	1600458519.1517086	167.0	16.0	16	2.0	2.0
1600458519.7374678	1600458519.7374678	168.0	19.0	19	2.179449471770337	2.179449471770337
1600458520.2886605	1600458520.2886605	169.0	11.0	11	1.6583123951777	1.6583123951777
1600458520.8828387	1600458520.8828387	170.0	26.0	26	2.5495097567963922	2.5495097567963922
1600458521.4300158	1600458521.4300158	171.0	16.0	16	2.0	2.0
1600458522.0238771	1600458522.0238771	172.0	24.0	24	2.449489742783178	2.449489742783178
1600458522.6994874	1600458522.6994874	173.0	37.0	37	3.0413812651491097	3.0413812651491097
1600458523.12282	1600458523.12282	174.0	34.0	34	2.9154759474226504	2.9154759474226504
1600458523.717942	1600458523.717942	175.0	33.0	33	2.8722813232690143	2.8722813232690143
1600458524.228264	1600458524.228264	176.0	13.0	13	1.8027756377319946	1.8027756377319946
1600458525.1293392	1600458525.1293392	177.0	13.0	13	1.8027756377319946	1.8027756377319946
1600458525.2906775	1600458525.2906775	178.0	12.0	12	1.7320508075688772	1.7320508075688772
1600458525.7610705	1600458525.7610705	179.0	10.0	10	1.5811388300841898	1.5811388300841898
1600458526.2778113	1600458526.2778113	180.0	11.0	11	1.6583123951777	1.6583123951777
1600458526.7662072	1600458526.7662072	181.0	4.0	4	1.0	1.0
1600458527.3048475	1600458527.3048475	182.0	24.0	24	2.449489742783178	2.449489742783178
1600458527.7922454	1600458527.7922454	183.0	46.0	46	3.391164991562634	3.391164991562634
1600458528.3299544	1600458528.3299544	184.0	45.0	45	3.3541019662496847	3.3541019662496847
1600458528.8387094	1600458528.8387094	185.0	24.0	24	2.449489742783178	2.449489742783178
1600458529.3707952	1600458529.3707952	186.0	33.0	33	2.8722813232690143	2.8722813232690143
1600458529.836487	1600458529.836487	187.0	40.0	40	3.1622776601683795	3.1622776601683795
1600458530.3824494	1600458530.3824494	188.0	32.0	32	2.8284271247461903	2.8284271247461903
1600458530.9144378	1600458530.9144378	189.0	19.0	19	2.179449471770337	2.179449471770337
1600458531.4635165	1600458531.4635165	190.0	9.0	9	1.5	1.5
1600458531.9424956	1600458531.9424956	191.0	11.0	11	1.6583123951777	1.6583123951777
1600458532.440005	1600458532.440005	192.0	14.0	14	1.8708286933869707	1.8708286933869707
1600458532.9291153	1600458532.9291153	193.0	5.0	5	1.118033988749895	1.118033988749895
1600458533.474329	1600458533.474329	194.0	2.0	2	0.7071067811865476	0.7071067811865476
1600458533.9389455	1600458533.9389455	195.0	1.0	1	0.5	0.5
1600458534.494805	1600458534.494805	196.0	0.0	0	0	0.5
1600458535.2171264	1600458535.2171264	197.0	0.0	0	0	0.5
1600458535.4185612	1600458535.4185612	198.0	0.0	0	0	0.5
1600458535.952785	1600458535.952785	199.0	1.0	1	0.5	0.5
1600458536.2690942	1600458536.2690942	200.0	1.0	1	0.5	0.5
1600458536.7107432	1600458536.7107432	201.0	1.0	1	0.5	0.5
1600458537.1894076	1600458537.1894076	202.0	0.0	0	0	0.5
1600458537.642174	1600458537.642174	203.0	1.0	1	0.5	0.5
1600458538.108324	1600458538.108324	204.0	1.0	1	0.5	0.5
1600458538.5524735	1600458538.5524735	205.0	0.0	0	0	0.5
1600458539.0480685	1600458539.0480685	206.0	7.0	7	1.3228756555322954	1.3228756555322954
1600458539.4801016	1600458539.4801016	207.0	21.0	21	2.29128784747792	2.29128784747792
1600458540.0520022	1600458540.0520022	208.0	41.0	41	3.2015621187164243	3.2015621187164243
1600458540.4600115	1600458540.4600115	209.0	65.0	65	4.031128874149275	4.031128874149275
1600458540.9075272	1600458540.9075272	210.0	137.0	137	5.852349955359813	5.852349955359813
1600458541.3251188	1600458541.3251188	211.0	115.0	115	5.361902647381804	5.361902647381804
1600458541.8281221	1600458541.8281221	212.0	108.0	108	5.196152422706632	5.196152422706632
1600458542.2942004	1600458542.2942004	213.0	82.0	82	4.527692569068709	4.527692569068709
1600458542.731336	1600458542.731336	214.0	111.0	111	5.267826876426369	5.267826876426369
1600458543.170553	1600458543.170553	215.0	77.0	77	4.387482193696061	4.387482193696061
1600458543.7048311	1600458543.7048311	216.0	111.0	111	5.267826876426369	5.267826876426369
1600458544.0362046	1600458544.0362046	217.0	83.0	83	4.55521678957215	4.55521678957215
1600458544.4446783	1600458544.4446783	218.0	103.0	103	5.07444578254611	5.07444578254611
1600458544.839822	1600458544.839822	219.0	100.0	100	5.0	5.0
1600458545.2688823	1600458545.2688823	220.0	97.0	97	4.924428900898052	4.924428900898052
1600458545.66314	1600458545.66314	221.0	96.0	96	4.898979485566356	4.898979485566356
1600458546.0927515	1600458546.0927515	222.0	84.0	84	4.58257569495584	4.58257569495584
1600458546.4937122	1600458546.4937122	223.0	30.0	30	2.7386127875258306	2.7386127875258306
1600458546.9343655	1600458546.9343655	224.0	12.0	12	1.7320508075688772	1.7320508075688772
1600458547.3253734	1600458547.3253734	225.0	6.0	6	1.224744871391589	1.224744871391589
1600458547.752111	1600458547.752111	226.0	0.0	0	0	0.5
1600458548.1899471	1600458548.1899471	227.0	2.0	2	0.7071067811865476	0.7071067811865476
1600458548.6350913	1600458548.6350913	228.0	0.0	0	0	0.5
1600458549.0223467	1600458549.0223467	229.0	2.0	2	0.7071067811865476	0.7071067811865476
1600458549.4373162	1600458549.4373162	230.0	2.0	2	0.7071067811865476	0.7071067811865476
1600458549.8143897	1600458549.8143897	231.0	8.0	8	1.4142135623730951	1.4142135623730951
1600458550.3101187	1600458550.3101187	232.0	11.0	11	1.6583123951777	1.6583123951777
1600458550.6771092	1600458550.6771092	233.0	12.0	12	1.7320508075688772	1.7320508075688772
1600458551.1526272	1600458551.1526272	234.0	14.0	14	1.8708286933869707	1.8708286933869707
1600458551.4991271	1600458551.4991271	235.0	5.0	5	1.118033988749895	1.118033988749895
1600458551.8579526	1600458551.8579526	236.0	6.0	6	1.224744871391589	1.224744871391589
1600458552.2325578	1600458552.2325578	237.0	12.0	12	1.7320508075688772	1.7320508075688772
1600458552.6117036	1600458552.6117036	238.0	11.0	11	1.6583123951777	1.6583123951777
1600458552.9713829	1600458552.9713829	239.0	8.0	8	1.4142135623730951	1.4142135623730951
1600458553.3622332	1600458553.3622332	240.0	11.0	11	1.6583123951777	1.6583123951777