# <?xml version="1.0" ?>
# <DataFileHeader>
#   <Variables>
#     <Element name="PulseProgram" type="dict">
#       <Element name="PulseProgram" type="str">C:/Users/ions/Documents/IonControl/project_dir/QuditLab/config/PulseProgramsPlus/Ablation_NeutralFluorescence.ppp</Element>
#       <Element name="NULL" type="Quantity">0</Element>
#       <Element name="FFFFFFFF" type="Quantity">18446744073709551615</Element>
#       <Element name="INTERRUPT_EXITCODE" type="Quantity">18446198715942174720</Element>
#       <Element name="InitializationShutter" type="int">4632</Element>
#       <Element name="NaturalAblation_mask" type="int">256</Element>
#       <Element name="NaturalAblation" type="int">256</Element>
#       <Element name="EndShutter" type="int">4632</Element>
#       <Element name="ShutterDelayTime" type="Quantity">0.5 s</Element>
#       <Element name="WindowStartTime" type="Quantity">141 us</Element>
#       <Element name="DetectTime" type="Quantity">20 us</Element>
#       <Element name="DummyVar" type="int">0</Element>
#       <Element name="experiments" type="int">1</Element>
#       <Element name="DetectCounters" type="int">1</Element>
#       <Element name="endLabel" type="Quantity">18446744073709551615</Element>
#       <Element name="experimentsleft" type="Quantity">100</Element>
#       <Element name="currentexperiment" type="Quantity">0</Element>
#       <Element name="inlinevar_1" type="Quantity">1</Element>
#     </Element>
#     <Element name="Scan" type="dict">
#       <Element name="scanParameter" type="str">DummyVar</Element>
#       <Element name="scanTarget" type="str">Internal</Element>
#       <Element name="scantype" type="int">0</Element>
#       <Element name="scanMode" type="int">0</Element>
#       <Element name="xUnit" type="str"></Element>
#       <Element name="xExpression" type="str"></Element>
#       <Element name="loadPP" type="bool">True</Element>
#       <Element name="loadPPName" type="str">Ablation_IonFluorescence_Nat.ppp</Element>
#       <Element name="parallelInternalScanParameter" type="str">None</Element>
#     </Element>
#     <ColumnSpec>timeTickFirst, timeTickLast, x, PMT Count, PMT Count_raw, PMT Count_bottom, PMT Count_top</ColumnSpec>
#     <Element name="comment" type="str"></Element>
#     <Element name="lastDataAquired" type="datetime">2020-09-18 19:56:57.179660+00:00</Element>
#     <Element name="name" type="str"></Element>
#     <Element name="traceCreation" type="datetime">2020-09-18 19:55:08.241205+00:00</Element>
#     <Element name="traceFinalized" type="datetime">2020-09-18 19:56:57.186886+00:00</Element>
#     <TracePlottingList>
#       <TracePlotting _bottomColumn="PMT Count_bottom" _filtColumn="None" _fitFunction="None" _heightColumn="height" _rawColumn="PMT Count_raw" _topColumn="PMT Count_top" _xColumn="x" _yColumn="PMT Count" fill="True" name="PMT Count" properties="&lt;trace.PlottedTrace.PlottedTraceProperties object at 0x000001565F33CC50&gt;" style="0" type="0" windowName="Scan Data" xAxisLabel="DummyVar" xAxisUnit="" yAxisLabel="None">
#         <PlottedTraceProperties averageSameX="False" averageType="0" combinePoints="0"/>
#       </TracePlotting>
#     </TracePlottingList>
#   </Variables>
# </DataFileHeader>
1600458906.9905608	1600458906.9905608	1.0	0.0	0	0	0.5
1600458908.1763446	1600458908.1763446	2.0	0.0	0	0	0.5
1600458909.3447232	1600458909.3447232	3.0	0.0	0	0	0.5
1600458909.614837	1600458909.614837	4.0	1.0	1	0.5	0.5
1600458910.0013871	1600458910.0013871	5.0	0.0	0	0	0.5
1600458910.3935	1600458910.3935	6.0	0.0	0	0	0.5
1600458910.9927247	1600458910.9927247	7.0	0.0	0	0	0.5
1600458911.5709403	1600458911.5709403	8.0	0.0	0	0	0.5
1600458912.086918	1600458912.086918	9.0	1.0	1	0.5	0.5
1600458912.6540585	1600458912.6540585	10.0	0.0	0	0	0.5
1600458913.2268023	1600458913.2268023	11.0	2.0	2	0.7071067811865476	0.7071067811865476
1600458913.8920364	1600458913.8920364	12.0	1.0	1	0.5	0.5
1600458914.429067	1600458914.429067	13.0	0.0	0	0	0.5
1600458914.9819431	1600458914.9819431	14.0	1.0	1	0.5	0.5
1600458915.706075	1600458915.706075	15.0	1.0	1	0.5	0.5
1600458916.1909986	1600458916.1909986	16.0	1.0	1	0.5	0.5
1600458916.6260202	1600458916.6260202	17.0	6.0	6	1.224744871391589	1.224744871391589
1600458917.1660264	1600458917.1660264	18.0	13.0	13	1.8027756377319946	1.8027756377319946
1600458918.1173766	1600458918.1173766	19.0	5.0	5	1.118033988749895	1.118033988749895
1600458918.3167593	1600458918.3167593	20.0	9.0	9	1.5	1.5
1600458918.7909386	1600458918.7909386	21.0	5.0	5	1.118033988749895	1.118033988749895
1600458919.430458	1600458919.430458	22.0	8.0	8	1.4142135623730951	1.4142135623730951
1600458919.8530643	1600458919.8530643	23.0	7.0	7	1.3228756555322954	1.3228756555322954
1600458920.3412545	1600458920.3412545	24.0	8.0	8	1.4142135623730951	1.4142135623730951
1600458920.8402972	1600458920.8402972	25.0	8.0	8	1.4142135623730951	1.4142135623730951
1600458921.3716724	1600458921.3716724	26.0	11.0	11	1.6583123951777	1.6583123951777
1600458921.87667	1600458921.87667	27.0	9.0	9	1.5	1.5
1600458922.3839035	1600458922.3839035	28.0	9.0	9	1.5	1.5
1600458922.8684828	1600458922.8684828	29.0	8.0	8	1.4142135623730951	1.4142135623730951
1600458923.393263	1600458923.393263	30.0	4.0	4	1.0	1.0
1600458923.8877451	1600458923.8877451	31.0	0.0	0	0	0.5
1600458924.408311	1600458924.408311	32.0	0.0	0	0	0.5
1600458924.8873541	1600458924.8873541	33.0	1.0	1	0.5	0.5
1600458925.54645	1600458925.54645	34.0	0.0	0	0	0.5
1600458926.0040014	1600458926.0040014	35.0	0.0	0	0	0.5
1600458926.4569886	1600458926.4569886	36.0	4.0	4	1.0	1.0
1600458926.957736	1600458926.957736	37.0	2.0	2	0.7071067811865476	0.7071067811865476
1600458927.6072533	1600458927.6072533	38.0	6.0	6	1.224744871391589	1.224744871391589
1600458927.9148462	1600458927.9148462	39.0	6.0	6	1.224744871391589	1.224744871391589
1600458928.4606612	1600458928.4606612	40.0	1.0	1	0.5	0.5
1600458928.8789527	1600458928.8789527	41.0	4.0	4	1.0	1.0
1600458929.3411505	1600458929.3411505	42.0	3.0	3	0.8660254037844386	0.8660254037844386
1600458929.7775476	1600458929.7775476	43.0	0.0	0	0	0.5
1600458930.2342756	1600458930.2342756	44.0	3.0	3	0.8660254037844386	0.8660254037844386
1600458930.6914048	1600458930.6914048	45.0	2.0	2	0.7071067811865476	0.7071067811865476
1600458931.1779525	1600458931.1779525	46.0	3.0	3	0.8660254037844386	0.8660254037844386
1600458931.6149392	1600458931.6149392	47.0	1.0	1	0.5	0.5
1600458932.0937057	1600458932.0937057	48.0	10.0	10	1.5811388300841898	1.5811388300841898
1600458932.5146666	1600458932.5146666	49.0	5.0	5	1.118033988749895	1.118033988749895
1600458933.008465	1600458933.008465	50.0	8.0	8	1.4142135623730951	1.4142135623730951
1600458933.428763	1600458933.428763	51.0	9.0	9	1.5	1.5
1600458933.929925	1600458933.929925	52.0	8.0	8	1.4142135623730951	1.4142135623730951
1600458934.3450358	1600458934.3450358	53.0	7.0	7	1.3228756555322954	1.3228756555322954
1600458934.8373532	1600458934.8373532	54.0	2.0	2	0.7071067811865476	0.7071067811865476
1600458935.3127437	1600458935.3127437	55.0	1.0	1	0.5	0.5
1600458935.7574525	1600458935.7574525	56.0	1.0	1	0.5	0.5
1600458936.1779525	1600458936.1779525	57.0	5.0	5	1.118033988749895	1.118033988749895
1600458936.6582208	1600458936.6582208	58.0	7.0	7	1.3228756555322954	1.3228756555322954
1600458937.0876787	1600458937.0876787	59.0	5.0	5	1.118033988749895	1.118033988749895
1600458937.548689	1600458937.548689	60.0	12.0	12	1.7320508075688772	1.7320508075688772
1600458937.9331493	1600458937.9331493	61.0	13.0	13	1.8027756377319946	1.8027756377319946
1600458938.3411372	1600458938.3411372	62.0	11.0	11	1.6583123951777	1.6583123951777
1600458938.760736	1600458938.760736	63.0	12.0	12	1.7320508075688772	1.7320508075688772
1600458939.2012644	1600458939.2012644	64.0	9.0	9	1.5	1.5
1600458939.5964928	1600458939.5964928	65.0	14.0	14	1.8708286933869707	1.8708286933869707
1600458940.0351717	1600458940.0351717	66.0	8.0	8	1.4142135623730951	1.4142135623730951
1600458940.433104	1600458940.433104	67.0	2.0	2	0.7071067811865476	0.7071067811865476
1600458940.8366108	1600458940.8366108	68.0	7.0	7	1.3228756555322954	1.3228756555322954
1600458941.221589	1600458941.221589	69.0	6.0	6	1.224744871391589	1.224744871391589
1600458941.6586037	1600458941.6586037	70.0	1.0	1	0.5	0.5
1600458942.044088	1600458942.044088	71.0	1.0	1	0.5	0.5
1600458942.4529786	1600458942.4529786	72.0	0.0	0	0	0.5
1600458942.8949165	1600458942.8949165	73.0	0.0	0	0	0.5
1600458943.455363	1600458943.455363	74.0	0.0	0	0	0.5
1600458943.6882343	1600458943.6882343	75.0	1.0	1	0.5	0.5
1600458944.1780183	1600458944.1780183	76.0	0.0	0	0	0.5
1600458944.5326946	1600458944.5326946	77.0	1.0	1	0.5	0.5
1600458944.9279974	1600458944.9279974	78.0	0.0	0	0	0.5
1600458945.328563	1600458945.328563	79.0	1.0	1	0.5	0.5
1600458945.7503512	1600458945.7503512	80.0	0.0	0	0	0.5
1600458946.0943272	1600458946.0943272	81.0	0.0	0	0	0.5
1600458946.458438	1600458946.458438	82.0	1.0	1	0.5	0.5
1600458946.833452	1600458946.833452	83.0	4.0	4	1.0	1.0
1600458947.2338955	1600458947.2338955	84.0	2.0	2	0.7071067811865476	0.7071067811865476
1600458947.643371	1600458947.643371	85.0	4.0	4	1.0	1.0
1600458947.9804285	1600458947.9804285	86.0	13.0	13	1.8027756377319946	1.8027756377319946
1600458948.3597581	1600458948.3597581	87.0	25.0	25	2.5	2.5
1600458948.8007004	1600458948.8007004	88.0	15.0	15	1.9364916731037085	1.9364916731037085
1600458949.0758734	1600458949.0758734	89.0	20.0	20	2.23606797749979	2.23606797749979
1600458949.4392495	1600458949.4392495	90.0	8.0	8	1.4142135623730951	1.4142135623730951
1600458949.800265	1600458949.800265	91.0	20.0	20	2.23606797749979	2.23606797749979
1600458950.333727	1600458950.333727	92.0	14.0	14	1.8708286933869707	1.8708286933869707
1600458950.5779614	1600458950.5779614	93.0	14.0	14	1.8708286933869707	1.8708286933869707
1600458950.9108176	1600458950.9108176	94.0	16.0	16	2.0	2.0
1600458951.2638905	1600458951.2638905	95.0	16.0	16	2.0	2.0
1600458951.666241	1600458951.666241	96.0	17.0	17	2.0615528128088303	2.0615528128088303
1600458952.0111024	1600458952.0111024	97.0	14.0	14	1.8708286933869707	1.8708286933869707
1600458952.3945787	1600458952.3945787	98.0	14.0	14	1.8708286933869707	1.8708286933869707
1600458952.7486722	1600458952.7486722	99.0	16.0	16	2.0	2.0
1600458953.1057427	1600458953.1057427	100.0	2.0	2	0.7071067811865476	0.7071067811865476
1600458953.4484463	1600458953.4484463	101.0	0.0	0	0	0.5
1600458953.805875	1600458953.805875	102.0	0.0	0	0	0.5
1600458954.1033065	1600458954.1033065	103.0	0.0	0	0	0.5
1600458954.4514694	1600458954.4514694	104.0	0.0	0	0	0.5
1600458954.8216484	1600458954.8216484	105.0	1.0	1	0.5	0.5
1600458955.135784	1600458955.135784	106.0	0.0	0	0	0.5
1600458955.4328802	1600458955.4328802	107.0	1.0	1	0.5	0.5
1600458955.7870219	1600458955.7870219	108.0	2.0	2	0.7071067811865476	0.7071067811865476
1600458956.1291182	1600458956.1291182	109.0	0.0	0	0	0.5
1600458956.438485	1600458956.438485	110.0	1.0	1	0.5	0.5
1600458956.7672408	1600458956.7672408	111.0	1.0	1	0.5	0.5
1600458957.110046	1600458957.110046	112.0	2.0	2	0.7071067811865476	0.7071067811865476
1600458957.433518	1600458957.433518	113.0	3.0	3	0.8660254037844386	0.8660254037844386
1600458957.7781584	1600458957.7781584	114.0	3.0	3	0.8660254037844386	0.8660254037844386
1600458958.0988295	1600458958.0988295	115.0	0.0	0	0	0.5
1600458958.4311526	1600458958.4311526	116.0	5.0	5	1.118033988749895	1.118033988749895
1600458958.812984	1600458958.812984	117.0	1.0	1	0.5	0.5
1600458959.128357	1600458959.128357	118.0	0.0	0	0	0.5
1600458959.424449	1600458959.424449	119.0	0.0	0	0	0.5
1600458959.7764678	1600458959.7764678	120.0	3.0	3	0.8660254037844386	0.8660254037844386
1600458960.1558852	1600458960.1558852	121.0	9.0	9	1.5	1.5
1600458960.534552	1600458960.534552	122.0	17.0	17	2.0615528128088303	2.0615528128088303
1600458960.8672926	1600458960.8672926	123.0	13.0	13	1.8027756377319946	1.8027756377319946
1600458961.2831607	1600458961.2831607	124.0	8.0	8	1.4142135623730951	1.4142135623730951
1600458961.6480117	1600458961.6480117	125.0	1.0	1	0.5	0.5
1600458961.9983902	1600458961.9983902	126.0	0.0	0	0	0.5
1600458962.33595	1600458962.33595	127.0	0.0	0	0	0.5
1600458962.7126431	1600458962.7126431	128.0	0.0	0	0	0.5
1600458963.0789754	1600458963.0789754	129.0	0.0	0	0	0.5
1600458963.4372656	1600458963.4372656	130.0	0.0	0	0	0.5
1600458963.8057435	1600458963.8057435	131.0	0.0	0	0	0.5
1600458964.1932635	1600458964.1932635	132.0	1.0	1	0.5	0.5
1600458964.537727	1600458964.537727	133.0	0.0	0	0	0.5
1600458964.910235	1600458964.910235	134.0	0.0	0	0	0.5
1600458965.300809	1600458965.300809	135.0	1.0	1	0.5	0.5
1600458965.6597662	1600458965.6597662	136.0	0.0	0	0	0.5
1600458965.9909208	1600458965.9909208	137.0	0.0	0	0	0.5
1600458966.3910584	1600458966.3910584	138.0	2.0	2	0.7071067811865476	0.7071067811865476
1600458967.0210896	1600458967.0210896	139.0	5.0	5	1.118033988749895	1.118033988749895
1600458967.2618904	1600458967.2618904	140.0	2.0	2	0.7071067811865476	0.7071067811865476
1600458967.513908	1600458967.513908	141.0	1.0	1	0.5	0.5
1600458967.9344423	1600458967.9344423	142.0	8.0	8	1.4142135623730951	1.4142135623730951
1600458968.311151	1600458968.311151	143.0	11.0	11	1.6583123951777	1.6583123951777
1600458968.7855082	1600458968.7855082	144.0	10.0	10	1.5811388300841898	1.5811388300841898
1600458969.1407216	1600458969.1407216	145.0	8.0	8	1.4142135623730951	1.4142135623730951
1600458969.5390322	1600458969.5390322	146.0	10.0	10	1.5811388300841898	1.5811388300841898
1600458969.9564981	1600458969.9564981	147.0	7.0	7	1.3228756555322954	1.3228756555322954
1600458970.3337824	1600458970.3337824	148.0	13.0	13	1.8027756377319946	1.8027756377319946
1600458970.7272599	1600458970.7272599	149.0	10.0	10	1.5811388300841898	1.5811388300841898
1600458971.157001	1600458971.157001	150.0	14.0	14	1.8708286933869707	1.8708286933869707
1600458971.5358508	1600458971.5358508	151.0	8.0	8	1.4142135623730951	1.4142135623730951
1600458971.9427118	1600458971.9427118	152.0	11.0	11	1.6583123951777	1.6583123951777
1600458972.3491256	1600458972.3491256	153.0	8.0	8	1.4142135623730951	1.4142135623730951
1600458972.7537496	1600458972.7537496	154.0	2.0	2	0.7071067811865476	0.7071067811865476
1600458973.1529884	1600458973.1529884	155.0	1.0	1	0.5	0.5
1600458973.573303	1600458973.573303	156.0	0.0	0	0	0.5
1600458973.9561334	1600458973.9561334	157.0	0.0	0	0	0.5
1600458974.3749027	1600458974.3749027	158.0	0.0	0	0	0.5
1600458974.8201091	1600458974.8201091	159.0	0.0	0	0	0.5
1600458975.2139418	1600458975.2139418	160.0	4.0	4	1.0	1.0
1600458975.6124964	1600458975.6124964	161.0	6.0	6	1.224744871391589	1.224744871391589
1600458976.0631015	1600458976.0631015	162.0	1.0	1	0.5	0.5
1600458976.5960312	1600458976.5960312	163.0	3.0	3	0.8660254037844386	0.8660254037844386
1600458977.0089588	1600458977.0089588	164.0	2.0	2	0.7071067811865476	0.7071067811865476
1600458977.400745	1600458977.400745	165.0	5.0	5	1.118033988749895	1.118033988749895
1600458977.8807273	1600458977.8807273	166.0	2.0	2	0.7071067811865476	0.7071067811865476
1600458978.2771177	1600458978.2771177	167.0	2.0	2	0.7071067811865476	0.7071067811865476
1600458978.7595208	1600458978.7595208	168.0	1.0	1	0.5	0.5
1600458979.1811976	1600458979.1811976	169.0	8.0	8	1.4142135623730951	1.4142135623730951
1600458979.6360111	1600458979.6360111	170.0	3.0	3	0.8660254037844386	0.8660254037844386
1600458980.0548668	1600458980.0548668	171.0	5.0	5	1.118033988749895	1.118033988749895
1600458980.491189	1600458980.491189	172.0	3.0	3	0.8660254037844386	0.8660254037844386
1600458980.9350812	1600458980.9350812	173.0	3.0	3	0.8660254037844386	0.8660254037844386
1600458981.4001734	1600458981.4001734	174.0	3.0	3	0.8660254037844386	0.8660254037844386
1600458981.816253	1600458981.816253	175.0	7.0	7	1.3228756555322954	1.3228756555322954
1600458982.2735884	1600458982.2735884	176.0	8.0	8	1.4142135623730951	1.4142135623730951
1600458982.7577882	1600458982.7577882	177.0	8.0	8	1.4142135623730951	1.4142135623730951
1600458983.1823566	1600458983.1823566	178.0	3.0	3	0.8660254037844386	0.8660254037844386
1600458983.7633183	1600458983.7633183	179.0	3.0	3	0.8660254037844386	0.8660254037844386
1600458984.117408	1600458984.117408	180.0	3.0	3	0.8660254037844386	0.8660254037844386
1600458984.5268252	1600458984.5268252	181.0	3.0	3	0.8660254037844386	0.8660254037844386
1600458985.0282493	1600458985.0282493	182.0	6.0	6	1.224744871391589	1.224744871391589
1600458985.571111	1600458985.571111	183.0	3.0	3	0.8660254037844386	0.8660254037844386
1600458986.0020483	1600458986.0020483	184.0	11.0	11	1.6583123951777	1.6583123951777
1600458986.522378	1600458986.522378	185.0	14.0	14	1.8708286933869707	1.8708286933869707
1600458987.0466027	1600458987.0466027	186.0	9.0	9	1.5	1.5
1600458987.526221	1600458987.526221	187.0	7.0	7	1.3228756555322954	1.3228756555322954
1600458987.9533596	1600458987.9533596	188.0	11.0	11	1.6583123951777	1.6583123951777
1600458988.4841368	1600458988.4841368	189.0	10.0	10	1.5811388300841898	1.5811388300841898
1600458988.9909527	1600458988.9909527	190.0	10.0	10	1.5811388300841898	1.5811388300841898
1600458989.4783523	1600458989.4783523	191.0	2.0	2	0.7071067811865476	0.7071067811865476
1600458989.909756	1600458989.909756	192.0	1.0	1	0.5	0.5
1600458990.4234548	1600458990.4234548	193.0	6.0	6	1.224744871391589	1.224744871391589
1600458990.946018	1600458990.946018	194.0	4.0	4	1.0	1.0
1600458991.4332173	1600458991.4332173	195.0	5.0	5	1.118033988749895	1.118033988749895
1600458991.874944	1600458991.874944	196.0	1.0	1	0.5	0.5
1600458992.385145	1600458992.385145	197.0	0.0	0	0	0.5
1600458993.287858	1600458993.287858	198.0	1.0	1	0.5	0.5
1600458993.4038136	1600458993.4038136	199.0	0.0	0	0	0.5
1600458993.821436	1600458993.821436	200.0	0.0	0	0	0.5
1600458994.4432979	1600458994.4432979	201.0	0.0	0	0	0.5
1600458994.906379	1600458994.906379	202.0	0.0	0	0	0.5
1600458995.4862163	1600458995.4862163	203.0	1.0	1	0.5	0.5
1600458995.9522908	1600458995.9522908	204.0	0.0	0	0	0.5
1600458996.5650969	1600458996.5650969	205.0	1.0	1	0.5	0.5
1600458997.017231	1600458997.017231	206.0	0.0	0	0	0.5
1600458997.634236	1600458997.634236	207.0	1.0	1	0.5	0.5
1600458998.112134	1600458998.112134	208.0	1.0	1	0.5	0.5
1600458998.6670501	1600458998.6670501	209.0	3.0	3	0.8660254037844386	0.8660254037844386
1600458999.2587216	1600458999.2587216	210.0	12.0	12	1.7320508075688772	1.7320508075688772
1600458999.6953812	1600458999.6953812	211.0	18.0	18	2.1213203435596424	2.1213203435596424
1600459000.250837	1600459000.250837	212.0	26.0	26	2.5495097567963922	2.5495097567963922
1600459000.9018385	1600459000.9018385	213.0	19.0	19	2.179449471770337	2.179449471770337
1600459001.3332672	1600459001.3332672	214.0	14.0	14	1.8708286933869707	1.8708286933869707
1600459001.846434	1600459001.846434	215.0	15.0	15	1.9364916731037085	1.9364916731037085
1600459002.4075634	1600459002.4075634	216.0	22.0	22	2.345207879911715	2.345207879911715
1600459002.9256508	1600459002.9256508	217.0	13.0	13	1.8027756377319946	1.8027756377319946
1600459003.465811	1600459003.465811	218.0	18.0	18	2.1213203435596424	2.1213203435596424
1600459003.9898956	1600459003.9898956	219.0	13.0	13	1.8027756377319946	1.8027756377319946
1600459004.5249674	1600459004.5249674	220.0	17.0	17	2.0615528128088303	2.0615528128088303
1600459005.1571844	1600459005.1571844	221.0	17.0	17	2.0615528128088303	2.0615528128088303
1600459005.8769975	1600459005.8769975	222.0	18.0	18	2.1213203435596424	2.1213203435596424
1600459006.348557	1600459006.348557	223.0	14.0	14	1.8708286933869707	1.8708286933869707
1600459007.1206975	1600459007.1206975	224.0	5.0	5	1.118033988749895	1.118033988749895
1600459007.5853837	1600459007.5853837	225.0	1.0	1	0.5	0.5
1600459008.0934412	1600459008.0934412	226.0	0.0	0	0	0.5
1600459008.97261	1600459008.97261	227.0	1.0	1	0.5	0.5
1600459009.4073188	1600459009.4073188	228.0	0.0	0	0	0.5
1600459010.303199	1600459010.303199	229.0	0.0	0	0	0.5
1600459010.7261348	1600459010.7261348	230.0	1.0	1	0.5	0.5
1600459011.326529	1600459011.326529	231.0	0.0	0	0	0.5
1600459012.0405853	1600459012.0405853	232.0	1.0	1	0.5	0.5
1600459012.4170203	1600459012.4170203	233.0	3.0	3	0.8660254037844386	0.8660254037844386
1600459013.1478045	1600459013.1478045	234.0	2.0	2	0.7071067811865476	0.7071067811865476
1600459013.5936828	1600459013.5936828	235.0	1.0	1	0.5	0.5
1600459014.5767393	1600459014.5767393	236.0	5.0	5	1.118033988749895	1.118033988749895
1600459015.2925956	1600459015.2925956	237.0	3.0	3	0.8660254037844386	0.8660254037844386
1600459015.6891506	1600459015.6891506	238.0	2.0	2	0.7071067811865476	0.7071067811865476
1600459015.9955978	1600459015.9955978	239.0	2.0	2	0.7071067811865476	0.7071067811865476
1600459016.4767675	1600459016.4767675	240.0	2.0	2	0.7071067811865476	0.7071067811865476