# <?xml version="1.0" ?>
# <DataFileHeader>
#   <Variables>
#     <Element name="PulseProgram" type="dict">
#       <Element name="PulseProgram" type="str">C:/Users/ions/Documents/IonControl/project_dir/QuditLab/config/PulseProgramsPlus/Ablation_NeutralFluorescence.ppp</Element>
#       <Element name="NULL" type="Quantity">0</Element>
#       <Element name="FFFFFFFF" type="Quantity">18446744073709551615</Element>
#       <Element name="INTERRUPT_EXITCODE" type="Quantity">18446198715942174720</Element>
#       <Element name="InitializationShutter" type="int">4632</Element>
#       <Element name="NaturalAblation_mask" type="int">256</Element>
#       <Element name="NaturalAblation" type="int">256</Element>
#       <Element name="EndShutter" type="int">4632</Element>
#       <Element name="ShutterDelayTime" type="Quantity">0.5 s</Element>
#       <Element name="WindowStartTime" type="Quantity">141 us</Element>
#       <Element name="DetectTime" type="Quantity">20 us</Element>
#       <Element name="DummyVar" type="int">0</Element>
#       <Element name="experiments" type="int">1</Element>
#       <Element name="DetectCounters" type="int">1</Element>
#       <Element name="endLabel" type="Quantity">18446744073709551615</Element>
#       <Element name="experimentsleft" type="Quantity">100</Element>
#       <Element name="currentexperiment" type="Quantity">0</Element>
#       <Element name="inlinevar_1" type="Quantity">1</Element>
#     </Element>
#     <Element name="Scan" type="dict">
#       <Element name="scanParameter" type="str">DummyVar</Element>
#       <Element name="scanTarget" type="str">Internal</Element>
#       <Element name="scantype" type="int">0</Element>
#       <Element name="scanMode" type="int">0</Element>
#       <Element name="xUnit" type="str"></Element>
#       <Element name="xExpression" type="str"></Element>
#       <Element name="loadPP" type="bool">True</Element>
#       <Element name="loadPPName" type="str">Ablation_IonFluorescence_Nat.ppp</Element>
#       <Element name="parallelInternalScanParameter" type="str">None</Element>
#     </Element>
#     <ColumnSpec>timeTickFirst, timeTickLast, x, PMT Count, PMT Count_raw, PMT Count_bottom, PMT Count_top</ColumnSpec>
#     <Element name="comment" type="str"></Element>
#     <Element name="lastDataAquired" type="datetime">2020-09-18 19:54:26.548614+00:00</Element>
#     <Element name="name" type="str"></Element>
#     <Element name="traceCreation" type="datetime">2020-09-18 19:52:39.788885+00:00</Element>
#     <Element name="traceFinalized" type="datetime">2020-09-18 19:54:26.558868+00:00</Element>
#     <TracePlottingList>
#       <TracePlotting _bottomColumn="PMT Count_bottom" _filtColumn="None" _fitFunction="None" _heightColumn="height" _rawColumn="PMT Count_raw" _topColumn="PMT Count_top" _xColumn="x" _yColumn="PMT Count" fill="True" name="PMT Count" properties="&lt;trace.PlottedTrace.PlottedTraceProperties object at 0x000001565F752470&gt;" style="0" type="0" windowName="Scan Data" xAxisLabel="DummyVar" xAxisUnit="" yAxisLabel="None">
#         <PlottedTraceProperties averageSameX="False" averageType="0" combinePoints="0"/>
#       </TracePlotting>
#     </TracePlottingList>
#   </Variables>
# </DataFileHeader>
1600458758.7381384	1600458758.7381384	1.0	2.0	2	0.7071067811865476	0.7071067811865476
1600458759.7834299	1600458759.7834299	2.0	3.0	3	0.8660254037844386	0.8660254037844386
1600458760.439795	1600458760.439795	3.0	0.0	0	0	0.5
1600458760.8974535	1600458760.8974535	4.0	3.0	3	0.8660254037844386	0.8660254037844386
1600458761.3115969	1600458761.3115969	5.0	2.0	2	0.7071067811865476	0.7071067811865476
1600458761.7682977	1600458761.7682977	6.0	3.0	3	0.8660254037844386	0.8660254037844386
1600458762.2672658	1600458762.2672658	7.0	1.0	1	0.5	0.5
1600458762.779336	1600458762.779336	8.0	0.0	0	0	0.5
1600458763.3184574	1600458763.3184574	9.0	0.0	0	0	0.5
1600458763.8440897	1600458763.8440897	10.0	1.0	1	0.5	0.5
1600458764.3329744	1600458764.3329744	11.0	0.0	0	0	0.5
1600458764.7529237	1600458764.7529237	12.0	0.0	0	0	0.5
1600458765.436017	1600458765.436017	13.0	1.0	1	0.5	0.5
1600458766.3181636	1600458766.3181636	14.0	1.0	1	0.5	0.5
1600458766.5022404	1600458766.5022404	15.0	0.0	0	0	0.5
1600458767.1046708	1600458767.1046708	16.0	0.0	0	0	0.5
1600458767.513848	1600458767.513848	17.0	0.0	0	0	0.5
1600458768.0771396	1600458768.0771396	18.0	0.0	0	0	0.5
1600458768.6096168	1600458768.6096168	19.0	0.0	0	0	0.5
1600458769.1510758	1600458769.1510758	20.0	0.0	0	0	0.5
1600458769.798119	1600458769.798119	21.0	0.0	0	0	0.5
1600458770.2657523	1600458770.2657523	22.0	0.0	0	0	0.5
1600458770.8968842	1600458770.8968842	23.0	0.0	0	0	0.5
1600458771.368041	1600458771.368041	24.0	0.0	0	0	0.5
1600458771.9085178	1600458771.9085178	25.0	1.0	1	0.5	0.5
1600458772.471145	1600458772.471145	26.0	1.0	1	0.5	0.5
1600458773.0260277	1600458773.0260277	27.0	2.0	2	0.7071067811865476	0.7071067811865476
1600458773.5913472	1600458773.5913472	28.0	2.0	2	0.7071067811865476	0.7071067811865476
1600458774.2725227	1600458774.2725227	29.0	0.0	0	0	0.5
1600458774.6913216	1600458774.6913216	30.0	0.0	0	0	0.5
1600458775.2464433	1600458775.2464433	31.0	1.0	1	0.5	0.5
1600458775.8046913	1600458775.8046913	32.0	2.0	2	0.7071067811865476	0.7071067811865476
1600458776.4944034	1600458776.4944034	33.0	1.0	1	0.5	0.5
1600458776.9885705	1600458776.9885705	34.0	4.0	4	1.0	1.0
1600458777.6101427	1600458777.6101427	35.0	1.0	1	0.5	0.5
1600458778.2595706	1600458778.2595706	36.0	4.0	4	1.0	1.0
1600458778.8596742	1600458778.8596742	37.0	1.0	1	0.5	0.5
1600458779.4784172	1600458779.4784172	38.0	1.0	1	0.5	0.5
1600458780.0747764	1600458780.0747764	39.0	0.0	0	0	0.5
1600458780.6944025	1600458780.6944025	40.0	0.0	0	0	0.5
1600458781.3160503	1600458781.3160503	41.0	0.0	0	0	0.5
1600458781.8141012	1600458781.8141012	42.0	0.0	0	0	0.5
1600458782.492102	1600458782.492102	43.0	0.0	0	0	0.5
1600458783.1162066	1600458783.1162066	44.0	0.0	0	0	0.5
1600458783.6390982	1600458783.6390982	45.0	0.0	0	0	0.5
1600458784.316006	1600458784.316006	46.0	0.0	0	0	0.5
1600458784.9396043	1600458784.9396043	47.0	1.0	1	0.5	0.5
1600458785.445305	1600458785.445305	48.0	0.0	0	0	0.5
1600458786.045718	1600458786.045718	49.0	1.0	1	0.5	0.5
1600458786.663862	1600458786.663862	50.0	0.0	0	0	0.5
1600458787.2648034	1600458787.2648034	51.0	1.0	1	0.5	0.5
1600458787.9213398	1600458787.9213398	52.0	0.0	0	0	0.5
1600458788.476982	1600458788.476982	53.0	1.0	1	0.5	0.5
1600458789.0354156	1600458789.0354156	54.0	1.0	1	0.5	0.5
1600458789.568414	1600458789.568414	55.0	1.0	1	0.5	0.5
1600458790.037937	1600458790.037937	56.0	0.0	0	0	0.5
1600458790.6601868	1600458790.6601868	57.0	0.0	0	0	0.5
1600458791.2070596	1600458791.2070596	58.0	0.0	0	0	0.5
1600458791.759424	1600458791.759424	59.0	0.0	0	0	0.5
1600458792.221898	1600458792.221898	60.0	3.0	3	0.8660254037844386	0.8660254037844386
1600458792.781503	1600458792.781503	61.0	1.0	1	0.5	0.5
1600458793.3483515	1600458793.3483515	62.0	2.0	2	0.7071067811865476	0.7071067811865476
1600458793.8522513	1600458793.8522513	63.0	1.0	1	0.5	0.5
1600458794.4921575	1600458794.4921575	64.0	2.0	2	0.7071067811865476	0.7071067811865476
1600458795.0228493	1600458795.0228493	65.0	0.0	0	0	0.5
1600458795.5154798	1600458795.5154798	66.0	0.0	0	0	0.5
1600458796.1989813	1600458796.1989813	67.0	0.0	0	0	0.5
1600458796.582141	1600458796.582141	68.0	1.0	1	0.5	0.5
1600458797.1510236	1600458797.1510236	69.0	0.0	0	0	0.5
1600458797.7426555	1600458797.7426555	70.0	0.0	0	0	0.5
1600458798.291559	1600458798.291559	71.0	0.0	0	0	0.5
1600458798.7754827	1600458798.7754827	72.0	1.0	1	0.5	0.5
1600458799.2722995	1600458799.2722995	73.0	0.0	0	0	0.5
1600458799.7758026	1600458799.7758026	74.0	0.0	0	0	0.5
1600458800.2814581	1600458800.2814581	75.0	0.0	0	0	0.5
1600458800.7901573	1600458800.7901573	76.0	1.0	1	0.5	0.5
1600458801.2687838	1600458801.2687838	77.0	1.0	1	0.5	0.5
1600458801.7951732	1600458801.7951732	78.0	1.0	1	0.5	0.5
1600458802.2307217	1600458802.2307217	79.0	1.0	1	0.5	0.5
1600458802.69933	1600458802.69933	80.0	1.0	1	0.5	0.5
1600458803.1995058	1600458803.1995058	81.0	0.0	0	0	0.5
1600458803.7454302	1600458803.7454302	82.0	1.0	1	0.5	0.5
1600458804.2474663	1600458804.2474663	83.0	3.0	3	0.8660254037844386	0.8660254037844386
1600458804.802529	1600458804.802529	84.0	4.0	4	1.0	1.0
1600458805.1427906	1600458805.1427906	85.0	0.0	0	0	0.5
1600458805.778756	1600458805.778756	86.0	1.0	1	0.5	0.5
1600458806.1083648	1600458806.1083648	87.0	3.0	3	0.8660254037844386	0.8660254037844386
1600458806.6644888	1600458806.6644888	88.0	0.0	0	0	0.5
1600458807.1744785	1600458807.1744785	89.0	0.0	0	0	0.5
1600458807.6701066	1600458807.6701066	90.0	4.0	4	1.0	1.0
1600458808.1259298	1600458808.1259298	91.0	2.0	2	0.7071067811865476	0.7071067811865476
1600458808.5565538	1600458808.5565538	92.0	0.0	0	0	0.5
1600458809.1780083	1600458809.1780083	93.0	0.0	0	0	0.5
1600458809.537444	1600458809.537444	94.0	0.0	0	0	0.5
1600458809.8844986	1600458809.8844986	95.0	0.0	0	0	0.5
1600458810.3440225	1600458810.3440225	96.0	0.0	0	0	0.5
1600458810.8086507	1600458810.8086507	97.0	1.0	1	0.5	0.5
1600458811.3607254	1600458811.3607254	98.0	0.0	0	0	0.5
1600458811.6834066	1600458811.6834066	99.0	0.0	0	0	0.5
1600458812.1350462	1600458812.1350462	100.0	0.0	0	0	0.5
1600458812.5924444	1600458812.5924444	101.0	1.0	1	0.5	0.5
1600458813.1171403	1600458813.1171403	102.0	0.0	0	0	0.5
1600458813.5018656	1600458813.5018656	103.0	0.0	0	0	0.5
1600458813.8609226	1600458813.8609226	104.0	0.0	0	0	0.5
1600458814.3726208	1600458814.3726208	105.0	0.0	0	0	0.5
1600458814.7526934	1600458814.7526934	106.0	0.0	0	0	0.5
1600458815.221117	1600458815.221117	107.0	1.0	1	0.5	0.5
1600458815.6801007	1600458815.6801007	108.0	0.0	0	0	0.5
1600458816.0935497	1600458816.0935497	109.0	0.0	0	0	0.5
1600458816.6519814	1600458816.6519814	110.0	0.0	0	0	0.5
1600458816.9738884	1600458816.9738884	111.0	2.0	2	0.7071067811865476	0.7071067811865476
1600458817.4354472	1600458817.4354472	112.0	1.0	1	0.5	0.5
1600458817.8400843	1600458817.8400843	113.0	3.0	3	0.8660254037844386	0.8660254037844386
1600458818.234652	1600458818.234652	114.0	1.0	1	0.5	0.5
1600458818.719151	1600458818.719151	115.0	0.0	0	0	0.5
1600458819.005838	1600458819.005838	116.0	0.0	0	0	0.5
1600458819.4599617	1600458819.4599617	117.0	0.0	0	0	0.5
1600458819.7912338	1600458819.7912338	118.0	0.0	0	0	0.5
1600458820.2707186	1600458820.2707186	119.0	0.0	0	0	0.5
1600458820.5778146	1600458820.5778146	120.0	0.0	0	0	0.5
1600458820.9967413	1600458820.9967413	121.0	0.0	0	0	0.5
1600458821.4321787	1600458821.4321787	122.0	0.0	0	0	0.5
1600458821.8149772	1600458821.8149772	123.0	0.0	0	0	0.5
1600458822.153826	1600458822.153826	124.0	1.0	1	0.5	0.5
1600458822.5566354	1600458822.5566354	125.0	3.0	3	0.8660254037844386	0.8660254037844386
1600458822.9740963	1600458822.9740963	126.0	1.0	1	0.5	0.5
1600458823.3516521	1600458823.3516521	127.0	4.0	4	1.0	1.0
1600458823.7586462	1600458823.7586462	128.0	6.0	6	1.224744871391589	1.224744871391589
1600458824.1408784	1600458824.1408784	129.0	4.0	4	1.0	1.0
1600458824.5515969	1600458824.5515969	130.0	2.0	2	0.7071067811865476	0.7071067811865476
1600458824.9404945	1600458824.9404945	131.0	0.0	0	0	0.5
1600458825.3512273	1600458825.3512273	132.0	0.0	0	0	0.5
1600458825.7187042	1600458825.7187042	133.0	0.0	0	0	0.5
1600458826.0708563	1600458826.0708563	134.0	0.0	0	0	0.5
1600458826.4261775	1600458826.4261775	135.0	1.0	1	0.5	0.5
1600458826.7917876	1600458826.7917876	136.0	0.0	0	0	0.5
1600458827.1367793	1600458827.1367793	137.0	0.0	0	0	0.5
1600458827.7844481	1600458827.7844481	138.0	0.0	0	0	0.5
1600458827.8553715	1600458827.8553715	139.0	0.0	0	0	0.5
1600458828.21722	1600458828.21722	140.0	0.0	0	0	0.5
1600458828.61109	1600458828.61109	141.0	0.0	0	0	0.5
1600458828.9642074	1600458828.9642074	142.0	0.0	0	0	0.5
1600458829.2980332	1600458829.2980332	143.0	0.0	0	0	0.5
1600458829.64471	1600458829.64471	144.0	0.0	0	0	0.5
1600458829.994689	1600458829.994689	145.0	0.0	0	0	0.5
1600458830.3673882	1600458830.3673882	146.0	0.0	0	0	0.5
1600458830.7080145	1600458830.7080145	147.0	0.0	0	0	0.5
1600458831.076945	1600458831.076945	148.0	1.0	1	0.5	0.5
1600458831.4388213	1600458831.4388213	149.0	1.0	1	0.5	0.5
1600458831.7988336	1600458831.7988336	150.0	1.0	1	0.5	0.5
1600458832.1340268	1600458832.1340268	151.0	9.0	9	1.5	1.5
1600458832.508016	1600458832.508016	152.0	5.0	5	1.118033988749895	1.118033988749895
1600458832.8890734	1600458832.8890734	153.0	2.0	2	0.7071067811865476	0.7071067811865476
1600458833.1953757	1600458833.1953757	154.0	1.0	1	0.5	0.5
1600458833.5292377	1600458833.5292377	155.0	2.0	2	0.7071067811865476	0.7071067811865476
1600458833.8479564	1600458833.8479564	156.0	2.0	2	0.7071067811865476	0.7071067811865476
1600458834.195177	1600458834.195177	157.0	3.0	3	0.8660254037844386	0.8660254037844386
1600458834.4693043	1600458834.4693043	158.0	1.0	1	0.5	0.5
1600458834.7874322	1600458834.7874322	159.0	2.0	2	0.7071067811865476	0.7071067811865476
1600458835.0864303	1600458835.0864303	160.0	1.0	1	0.5	0.5
1600458835.4523535	1600458835.4523535	161.0	1.0	1	0.5	0.5
1600458835.7287066	1600458835.7287066	162.0	1.0	1	0.5	0.5
1600458836.1016924	1600458836.1016924	163.0	0.0	0	0	0.5
1600458836.426556	1600458836.426556	164.0	1.0	1	0.5	0.5
1600458836.6877263	1600458836.6877263	165.0	2.0	2	0.7071067811865476	0.7071067811865476
1600458837.02776	1600458837.02776	166.0	0.0	0	0	0.5
1600458837.3320777	1600458837.3320777	167.0	0.0	0	0	0.5
1600458837.6644921	1600458837.6644921	168.0	0.0	0	0	0.5
1600458837.9750383	1600458837.9750383	169.0	2.0	2	0.7071067811865476	0.7071067811865476
1600458838.3317838	1600458838.3317838	170.0	1.0	1	0.5	0.5
1600458838.6404247	1600458838.6404247	171.0	0.0	0	0	0.5
1600458838.9429924	1600458838.9429924	172.0	0.0	0	0	0.5
1600458839.27763	1600458839.27763	173.0	0.0	0	0	0.5
1600458839.7330189	1600458839.7330189	174.0	1.0	1	0.5	0.5
1600458840.0064907	1600458840.0064907	175.0	0.0	0	0	0.5
1600458840.4065187	1600458840.4065187	176.0	1.0	1	0.5	0.5
1600458840.6945686	1600458840.6945686	177.0	0.0	0	0	0.5
1600458841.095491	1600458841.095491	178.0	0.0	0	0	0.5
1600458841.4466636	1600458841.4466636	179.0	1.0	1	0.5	0.5
1600458841.8170006	1600458841.8170006	180.0	1.0	1	0.5	0.5
1600458842.1637778	1600458842.1637778	181.0	0.0	0	0	0.5
1600458842.4744947	1600458842.4744947	182.0	0.0	0	0	0.5
1600458842.8666604	1600458842.8666604	183.0	0.0	0	0	0.5
1600458843.1694965	1600458843.1694965	184.0	1.0	1	0.5	0.5
1600458843.573092	1600458843.573092	185.0	0.0	0	0	0.5
1600458843.9313211	1600458843.9313211	186.0	1.0	1	0.5	0.5
1600458844.2727716	1600458844.2727716	187.0	1.0	1	0.5	0.5
1600458844.6856499	1600458844.6856499	188.0	1.0	1	0.5	0.5
1600458844.9585834	1600458844.9585834	189.0	1.0	1	0.5	0.5
1600458845.2921503	1600458845.2921503	190.0	1.0	1	0.5	0.5
1600458845.6923215	1600458845.6923215	191.0	0.0	0	0	0.5
1600458846.0729156	1600458846.0729156	192.0	0.0	0	0	0.5
1600458846.366104	1600458846.366104	193.0	0.0	0	0	0.5
1600458846.8138864	1600458846.8138864	194.0	1.0	1	0.5	0.5
1600458847.1413949	1600458847.1413949	195.0	0.0	0	0	0.5
1600458847.5950558	1600458847.5950558	196.0	0.0	0	0	0.5
1600458847.9718132	1600458847.9718132	197.0	0.0	0	0	0.5
1600458848.3751166	1600458848.3751166	198.0	0.0	0	0	0.5
1600458848.6999516	1600458848.6999516	199.0	0.0	0	0	0.5
1600458849.1430748	1600458849.1430748	200.0	1.0	1	0.5	0.5
1600458849.5356188	1600458849.5356188	201.0	0.0	0	0	0.5
1600458849.8746414	1600458849.8746414	202.0	0.0	0	0	0.5
1600458850.3098202	1600458850.3098202	203.0	0.0	0	0	0.5
1600458850.6513798	1600458850.6513798	204.0	0.0	0	0	0.5
1600458851.0712142	1600458851.0712142	205.0	0.0	0	0	0.5
1600458851.4831674	1600458851.4831674	206.0	1.0	1	0.5	0.5
1600458851.9725745	1600458851.9725745	207.0	2.0	2	0.7071067811865476	0.7071067811865476
1600458852.2321875	1600458852.2321875	208.0	0.0	0	0	0.5
1600458852.5878148	1600458852.5878148	209.0	2.0	2	0.7071067811865476	0.7071067811865476
1600458853.044819	1600458853.044819	210.0	3.0	3	0.8660254037844386	0.8660254037844386
1600458853.4805896	1600458853.4805896	211.0	1.0	1	0.5	0.5
1600458853.8462505	1600458853.8462505	212.0	0.0	0	0	0.5
1600458854.482913	1600458854.482913	213.0	1.0	1	0.5	0.5
1600458854.6570392	1600458854.6570392	214.0	2.0	2	0.7071067811865476	0.7071067811865476
1600458855.0919936	1600458855.0919936	215.0	4.0	4	1.0	1.0
1600458855.4538658	1600458855.4538658	216.0	1.0	1	0.5	0.5
1600458855.8685148	1600458855.8685148	217.0	0.0	0	0	0.5
1600458856.364181	1600458856.364181	218.0	0.0	0	0	0.5
1600458856.7264323	1600458856.7264323	219.0	1.0	1	0.5	0.5
1600458857.2131753	1600458857.2131753	220.0	0.0	0	0	0.5
1600458857.713375	1600458857.713375	221.0	1.0	1	0.5	0.5
1600458858.1396646	1600458858.1396646	222.0	1.0	1	0.5	0.5
1600458858.4771676	1600458858.4771676	223.0	0.0	0	0	0.5
1600458858.987201	1600458858.987201	224.0	0.0	0	0	0.5
1600458859.317554	1600458859.317554	225.0	0.0	0	0	0.5
1600458859.739858	1600458859.739858	226.0	0.0	0	0	0.5
1600458860.144104	1600458860.144104	227.0	4.0	4	1.0	1.0
1600458860.7053194	1600458860.7053194	228.0	0.0	0	0	0.5
1600458861.0708642	1600458861.0708642	229.0	1.0	1	0.5	0.5
1600458861.5566978	1600458861.5566978	230.0	0.0	0	0	0.5
1600458861.8999755	1600458861.8999755	231.0	0.0	0	0	0.5
1600458862.3492265	1600458862.3492265	232.0	0.0	0	0	0.5
1600458862.769082	1600458862.769082	233.0	1.0	1	0.5	0.5
1600458863.22442	1600458863.22442	234.0	0.0	0	0	0.5
1600458863.6787581	1600458863.6787581	235.0	0.0	0	0	0.5
1600458864.155718	1600458864.155718	236.0	1.0	1	0.5	0.5
1600458864.608954	1600458864.608954	237.0	0.0	0	0	0.5
1600458865.0888116	1600458865.0888116	238.0	0.0	0	0	0.5
1600458865.5473216	1600458865.5473216	239.0	1.0	1	0.5	0.5
1600458866.1030312	1600458866.1030312	240.0	3.0	3	0.8660254037844386	0.8660254037844386